#Distance(nm)      Energy(kJ/mol)     Force(kJ/mol/nm)
-1.8000000000e+02   1.2939530842e+00 -3.6127667580e+00
-1.7995000000e+02   1.2952931452e+00 -2.7493200000e-02
-1.7990000000e+02   1.2967024042e+00 -2.8866090000e-02
-1.7985000000e+02   1.2981797542e+00 -3.0216850000e-02
-1.7980000000e+02   1.2997240892e+00 -3.1545480000e-02
-1.7975000000e+02   1.3013343022e+00 -3.2851970000e-02
-1.7970000000e+02   1.3030092862e+00 -3.4136340000e-02
-1.7965000000e+02   1.3047479362e+00 -3.5398590000e-02
-1.7960000000e+02   1.3065491452e+00 -3.6638700000e-02
-1.7955000000e+02   1.3084118062e+00 -3.7856670000e-02
-1.7950000000e+02   1.3103348122e+00 -3.9052510000e-02
-1.7945000000e+02   1.3123170572e+00 -4.0226230000e-02
-1.7940000000e+02   1.3143574352e+00 -4.1377820000e-02
-1.7935000000e+02   1.3164548392e+00 -4.2507280000e-02
-1.7930000000e+02   1.3186081632e+00 -4.3614610000e-02
-1.7925000000e+02   1.3208163002e+00 -4.4699800000e-02
-1.7920000000e+02   1.3230781432e+00 -4.5762860000e-02
-1.7915000000e+02   1.3253925862e+00 -4.6803790000e-02
-1.7910000000e+02   1.3277585222e+00 -4.7822600000e-02
-1.7905000000e+02   1.3301748462e+00 -4.8819280000e-02
-1.7900000000e+02   1.3326404502e+00 -4.9793820000e-02
-1.7895000000e+02   1.3351542282e+00 -5.0746230000e-02
-1.7890000000e+02   1.3377150732e+00 -5.1676510000e-02
-1.7885000000e+02   1.3403218792e+00 -5.2584670000e-02
-1.7880000000e+02   1.3429735402e+00 -5.3470690000e-02
-1.7875000000e+02   1.3456689482e+00 -5.4334580000e-02
-1.7870000000e+02   1.3484069982e+00 -5.5176340000e-02
-1.7865000000e+02   1.3511865822e+00 -5.5995970000e-02
-1.7860000000e+02   1.3540065952e+00 -5.6793480000e-02
-1.7855000000e+02   1.3568659302e+00 -5.7568840000e-02
-1.7850000000e+02   1.3597634792e+00 -5.8322080000e-02
-1.7845000000e+02   1.3626981382e+00 -5.9053200000e-02
-1.7840000000e+02   1.3656687992e+00 -5.9762170000e-02
-1.7835000000e+02   1.3686743552e+00 -6.0449010000e-02
-1.7830000000e+02   1.3717137002e+00 -6.1113740000e-02
-1.7825000000e+02   1.3747857292e+00 -6.1756330000e-02
-1.7820000000e+02   1.3778893332e+00 -6.2376780000e-02
-1.7815000000e+02   1.3810234072e+00 -6.2975110000e-02
-1.7810000000e+02   1.3841868442e+00 -6.3551300000e-02
-1.7805000000e+02   1.3873785372e+00 -6.4105370000e-02
-1.7800000000e+02   1.3905973812e+00 -6.4637310000e-02
-1.7795000000e+02   1.3938422682e+00 -6.5147110000e-02
-1.7790000000e+02   1.3971120922e+00 -6.5634790000e-02
-1.7785000000e+02   1.4004057472e+00 -6.6100340000e-02
-1.7780000000e+02   1.4037221262e+00 -6.6543750000e-02
-1.7775000000e+02   1.4070601222e+00 -6.6965030000e-02
-1.7770000000e+02   1.4104186292e+00 -6.7364190000e-02
-1.7765000000e+02   1.4137965412e+00 -6.7741210000e-02
-1.7760000000e+02   1.4171927502e+00 -6.8096100000e-02
-1.7755000000e+02   1.4206061512e+00 -6.8428860000e-02
-1.7750000000e+02   1.4240356362e+00 -6.8739490000e-02
-1.7745000000e+02   1.4274801002e+00 -6.9028000000e-02
-1.7740000000e+02   1.4309384362e+00 -6.9294370000e-02
-1.7735000000e+02   1.4344095372e+00 -6.9538610000e-02
-1.7730000000e+02   1.4378922972e+00 -6.9760720000e-02
-1.7725000000e+02   1.4413856092e+00 -6.9960700000e-02
-1.7720000000e+02   1.4448883672e+00 -7.0138550000e-02
-1.7715000000e+02   1.4483994642e+00 -7.0294270000e-02
-1.7710000000e+02   1.4519177942e+00 -7.0427860000e-02
-1.7705000000e+02   1.4554422502e+00 -7.0539320000e-02
-1.7700000000e+02   1.4589717262e+00 -7.0628650000e-02
-1.7695000000e+02   1.4625051152e+00 -7.0695840000e-02
-1.7690000000e+02   1.4660413102e+00 -7.0740910000e-02
-1.7685000000e+02   1.4695792062e+00 -7.0763850000e-02
-1.7680000000e+02   1.4731176952e+00 -7.0764660000e-02
-1.7675000000e+02   1.4766556722e+00 -7.0743340000e-02
-1.7670000000e+02   1.4801920292e+00 -7.0699880000e-02
-1.7665000000e+02   1.4837256602e+00 -7.0634290000e-02
-1.7660000000e+02   1.4872554582e+00 -7.0546570000e-02
-1.7655000000e+02   1.4907803172e+00 -7.0436730000e-02
-1.7650000000e+02   1.4942991312e+00 -7.0304760000e-02
-1.7645000000e+02   1.4978107932e+00 -7.0150660000e-02
-1.7640000000e+02   1.5013141972e+00 -6.9974420000e-02
-1.7635000000e+02   1.5048082352e+00 -6.9776050000e-02
-1.7630000000e+02   1.5082918022e+00 -6.9555550000e-02
-1.7625000000e+02   1.5117637902e+00 -6.9312920000e-02
-1.7620000000e+02   1.5152230942e+00 -6.9048170000e-02
-1.7615000000e+02   1.5186686072e+00 -6.8761280000e-02
-1.7610000000e+02   1.5220992222e+00 -6.8452260000e-02
-1.7605000000e+02   1.5255138332e+00 -6.8121110000e-02
-1.7600000000e+02   1.5289113332e+00 -6.7767830000e-02
-1.7595000000e+02   1.5322906162e+00 -6.7392430000e-02
-1.7590000000e+02   1.5356505762e+00 -6.6994890000e-02
-1.7585000000e+02   1.5389901052e+00 -6.6575210000e-02
-1.7580000000e+02   1.5423080972e+00 -6.6133410000e-02
-1.7575000000e+02   1.5456034462e+00 -6.5669480000e-02
-1.7570000000e+02   1.5488750452e+00 -6.5183420000e-02
-1.7565000000e+02   1.5521217882e+00 -6.4675230000e-02
-1.7560000000e+02   1.5553425682e+00 -6.4144900000e-02
-1.7555000000e+02   1.5585362782e+00 -6.3592450000e-02
-1.7550000000e+02   1.5617018132e+00 -6.3017870000e-02
-1.7545000000e+02   1.5648380652e+00 -6.2421160000e-02
-1.7540000000e+02   1.5679439292e+00 -6.1802310000e-02
-1.7535000000e+02   1.5710182962e+00 -6.1161330000e-02
-1.7530000000e+02   1.5740600622e+00 -6.0498240000e-02
-1.7525000000e+02   1.5770681202e+00 -5.9813000000e-02
-1.7520000000e+02   1.5800413622e+00 -5.9105630000e-02
-1.7515000000e+02   1.5829786832e+00 -5.8376140000e-02
-1.7510000000e+02   1.5858789762e+00 -5.7624510000e-02
-1.7505000000e+02   1.5887411342e+00 -5.6850750000e-02
-1.7500000000e+02   1.5915640512e+00 -5.6054870000e-02
-1.7495000000e+02   1.5943466212e+00 -5.5236860000e-02
-1.7490000000e+02   1.5970877372e+00 -5.4396700000e-02
-1.7485000000e+02   1.5997862912e+00 -5.3534420000e-02
-1.7480000000e+02   1.6024411792e+00 -5.2650020000e-02
-1.7475000000e+02   1.6050512932e+00 -5.1743480000e-02
-1.7470000000e+02   1.6076155272e+00 -5.0814810000e-02
-1.7465000000e+02   1.6101327742e+00 -4.9864010000e-02
-1.7460000000e+02   1.6126019282e+00 -4.8891080000e-02
-1.7455000000e+02   1.6150218822e+00 -4.7896020000e-02
-1.7450000000e+02   1.6173915302e+00 -4.6878830000e-02
-1.7445000000e+02   1.6197097652e+00 -4.5839510000e-02
-1.7440000000e+02   1.6219754812e+00 -4.4778050000e-02
-1.7435000000e+02   1.6241875702e+00 -4.3694470000e-02
-1.7430000000e+02   1.6263449282e+00 -4.2589320000e-02
-1.7425000000e+02   1.6284465022e+00 -4.1475100000e-02
-1.7420000000e+02   1.6304924382e+00 -4.0374090000e-02
-1.7415000000e+02   1.6324839112e+00 -3.9296750000e-02
-1.7410000000e+02   1.6344221132e+00 -3.8243280000e-02
-1.7405000000e+02   1.6363082392e+00 -3.7213670000e-02
-1.7400000000e+02   1.6381434802e+00 -3.6207910000e-02
-1.7395000000e+02   1.6399290302e+00 -3.5226030000e-02
-1.7390000000e+02   1.6416660832e+00 -3.4268000000e-02
-1.7385000000e+02   1.6433558302e+00 -3.3333820000e-02
-1.7380000000e+02   1.6449994652e+00 -3.2423520000e-02
-1.7375000000e+02   1.6465981822e+00 -3.1537070000e-02
-1.7370000000e+02   1.6481531722e+00 -3.0674480000e-02
-1.7365000000e+02   1.6496656302e+00 -2.9835750000e-02
-1.7360000000e+02   1.6511367472e+00 -2.9020880000e-02
-1.7355000000e+02   1.6525677182e+00 -2.8229880000e-02
-1.7350000000e+02   1.6539597352e+00 -2.7462730000e-02
-1.7345000000e+02   1.6553139912e+00 -2.6719450000e-02
-1.7340000000e+02   1.6566316802e+00 -2.6000030000e-02
-1.7335000000e+02   1.6579139942e+00 -2.5304460000e-02
-1.7330000000e+02   1.6591621262e+00 -2.4632750000e-02
-1.7325000000e+02   1.6603772692e+00 -2.3984900000e-02
-1.7320000000e+02   1.6615606162e+00 -2.3360920000e-02
-1.7315000000e+02   1.6627133612e+00 -2.2760810000e-02
-1.7310000000e+02   1.6638366972e+00 -2.2184550000e-02
-1.7305000000e+02   1.6649318162e+00 -2.1632140000e-02
-1.7300000000e+02   1.6659999112e+00 -2.1103590000e-02
-1.7295000000e+02   1.6670421752e+00 -2.0598920000e-02
-1.7290000000e+02   1.6680598032e+00 -2.0118100000e-02
-1.7285000000e+02   1.6690539852e+00 -1.9661140000e-02
-1.7280000000e+02   1.6700259172e+00 -1.9228040000e-02
-1.7275000000e+02   1.6709767892e+00 -1.8818800000e-02
-1.7270000000e+02   1.6719077972e+00 -1.8433430000e-02
-1.7265000000e+02   1.6728201322e+00 -1.8071910000e-02
-1.7260000000e+02   1.6737149882e+00 -1.7734250000e-02
-1.7255000000e+02   1.6745935572e+00 -1.7420450000e-02
-1.7250000000e+02   1.6754570332e+00 -1.7130520000e-02
-1.7245000000e+02   1.6763066092e+00 -1.6864440000e-02
-1.7240000000e+02   1.6771434772e+00 -1.6622230000e-02
-1.7235000000e+02   1.6779688322e+00 -1.6403880000e-02
-1.7230000000e+02   1.6787838652e+00 -1.6209380000e-02
-1.7225000000e+02   1.6795897702e+00 -1.6038750000e-02
-1.7220000000e+02   1.6803877402e+00 -1.5891980000e-02
-1.7215000000e+02   1.6811789682e+00 -1.5769060000e-02
-1.7210000000e+02   1.6819646462e+00 -1.5670010000e-02
-1.7205000000e+02   1.6827459692e+00 -1.5594830000e-02
-1.7200000000e+02   1.6835241292e+00 -1.5543490000e-02
-1.7195000000e+02   1.6843003182e+00 -1.5516020000e-02
-1.7190000000e+02   1.6850757312e+00 -1.5512410000e-02
-1.7185000000e+02   1.6858515592e+00 -1.5532660000e-02
-1.7180000000e+02   1.6866289972e+00 -1.5576780000e-02
-1.7175000000e+02   1.6874092372e+00 -1.5644750000e-02
-1.7170000000e+02   1.6881934722e+00 -1.5736580000e-02
-1.7165000000e+02   1.6889828952e+00 -1.5852270000e-02
-1.7160000000e+02   1.6897786992e+00 -1.5991830000e-02
-1.7155000000e+02   1.6905820782e+00 -1.6155240000e-02
-1.7150000000e+02   1.6913942232e+00 -1.6342510000e-02
-1.7145000000e+02   1.6922163292e+00 -1.6553660000e-02
-1.7140000000e+02   1.6930495892e+00 -1.6788650000e-02
-1.7135000000e+02   1.6938951942e+00 -1.7047500000e-02
-1.7130000000e+02   1.6947543392e+00 -1.7330220000e-02
-1.7125000000e+02   1.6956282162e+00 -1.7636800000e-02
-1.7120000000e+02   1.6965180192e+00 -1.7967240000e-02
-1.7115000000e+02   1.6974249402e+00 -1.8321530000e-02
-1.7110000000e+02   1.6983501722e+00 -1.8699690000e-02
-1.7105000000e+02   1.6992949092e+00 -1.9101720000e-02
-1.7100000000e+02   1.7002603442e+00 -1.9527600000e-02
-1.7095000000e+02   1.7012476692e+00 -1.9977330000e-02
-1.7090000000e+02   1.7022580772e+00 -2.0450930000e-02
-1.7085000000e+02   1.7032927622e+00 -2.0948400000e-02
-1.7080000000e+02   1.7043529172e+00 -2.1469730000e-02
-1.7075000000e+02   1.7054397352e+00 -2.2014910000e-02
-1.7070000000e+02   1.7065544082e+00 -2.2583940000e-02
-1.7065000000e+02   1.7076981292e+00 -2.3176850000e-02
-1.7060000000e+02   1.7088720932e+00 -2.3793620000e-02
-1.7055000000e+02   1.7100774912e+00 -2.4434230000e-02
-1.7050000000e+02   1.7113155162e+00 -2.5098720000e-02
-1.7045000000e+02   1.7125873632e+00 -2.5787080000e-02
-1.7040000000e+02   1.7138942242e+00 -2.6499280000e-02
-1.7035000000e+02   1.7152372912e+00 -2.7235340000e-02
-1.7030000000e+02   1.7166177582e+00 -2.7995270000e-02
-1.7025000000e+02   1.7180368182e+00 -2.8779060000e-02
-1.7020000000e+02   1.7194956642e+00 -2.9586710000e-02
-1.7015000000e+02   1.7209954892e+00 -3.0418220000e-02
-1.7010000000e+02   1.7225374862e+00 -3.1273590000e-02
-1.7005000000e+02   1.7241228482e+00 -3.2152810000e-02
-1.7000000000e+02   1.7257527672e+00 -3.3055900000e-02
-1.6995000000e+02   1.7274284382e+00 -3.3982860000e-02
-1.6990000000e+02   1.7291510532e+00 -3.4933670000e-02
-1.6985000000e+02   1.7309218052e+00 -3.5908350000e-02
-1.6980000000e+02   1.7327418882e+00 -3.6906880000e-02
-1.6975000000e+02   1.7346124932e+00 -3.7929270000e-02
-1.6970000000e+02   1.7365348152e+00 -3.8975520000e-02
-1.6965000000e+02   1.7385100452e+00 -4.0045630000e-02
-1.6960000000e+02   1.7405393782e+00 -4.1139620000e-02
-1.6955000000e+02   1.7426240072e+00 -4.2257450000e-02
-1.6950000000e+02   1.7447651232e+00 -4.3399140000e-02
-1.6945000000e+02   1.7469639212e+00 -4.4564700000e-02
-1.6940000000e+02   1.7492215932e+00 -4.5754120000e-02
-1.6935000000e+02   1.7515393332e+00 -4.6967400000e-02
-1.6930000000e+02   1.7539183332e+00 -4.8204530000e-02
-1.6925000000e+02   1.7563597862e+00 -4.9465530000e-02
-1.6920000000e+02   1.7588648862e+00 -5.0750390000e-02
-1.6915000000e+02   1.7614348252e+00 -5.2059110000e-02
-1.6910000000e+02   1.7640707972e+00 -5.3391690000e-02
-1.6905000000e+02   1.7667739942e+00 -5.4748130000e-02
-1.6900000000e+02   1.7695456102e+00 -5.6128430000e-02
-1.6895000000e+02   1.7723868372e+00 -5.7532590000e-02
-1.6890000000e+02   1.7752988692e+00 -5.8960620000e-02
-1.6885000000e+02   1.7782828992e+00 -6.0412500000e-02
-1.6880000000e+02   1.7813401192e+00 -6.1888240000e-02
-1.6875000000e+02   1.7844717232e+00 -6.3387850000e-02
-1.6870000000e+02   1.7876789042e+00 -6.4911310000e-02
-1.6865000000e+02   1.7909628542e+00 -6.6458630000e-02
-1.6860000000e+02   1.7943247672e+00 -6.8029820000e-02
-1.6855000000e+02   1.7977658362e+00 -6.9384330000e-02
-1.6850000000e+02   1.8012632002e+00 -7.0046350000e-02
-1.6845000000e+02   1.8047704712e+00 -7.0231080000e-02
-1.6840000000e+02   1.8082863082e+00 -7.0400960000e-02
-1.6835000000e+02   1.8118105672e+00 -7.0567990000e-02
-1.6830000000e+02   1.8153431072e+00 -7.0732190000e-02
-1.6825000000e+02   1.8188837862e+00 -7.0893570000e-02
-1.6820000000e+02   1.8224324642e+00 -7.1052110000e-02
-1.6815000000e+02   1.8259889972e+00 -7.1207820000e-02
-1.6810000000e+02   1.8295532462e+00 -7.1360710000e-02
-1.6805000000e+02   1.8331250682e+00 -7.1510750000e-02
-1.6800000000e+02   1.8367043212e+00 -7.1657970000e-02
-1.6795000000e+02   1.8402908652e+00 -7.1802360000e-02
-1.6790000000e+02   1.8438845572e+00 -7.1943910000e-02
-1.6785000000e+02   1.8474852562e+00 -7.2082630000e-02
-1.6780000000e+02   1.8510928202e+00 -7.2218510000e-02
-1.6775000000e+02   1.8547071072e+00 -7.2351570000e-02
-1.6770000000e+02   1.8583279772e+00 -7.2481810000e-02
-1.6765000000e+02   1.8619552882e+00 -7.2609200000e-02
-1.6760000000e+02   1.8655888972e+00 -7.2733760000e-02
-1.6755000000e+02   1.8692286642e+00 -7.2855490000e-02
-1.6750000000e+02   1.8728744462e+00 -7.2974390000e-02
-1.6745000000e+02   1.8765261032e+00 -7.3090460000e-02
-1.6740000000e+02   1.8801834922e+00 -7.3203700000e-02
-1.6735000000e+02   1.8838464732e+00 -7.3314110000e-02
-1.6730000000e+02   1.8875149032e+00 -7.3421670000e-02
-1.6725000000e+02   1.8911886402e+00 -7.3526410000e-02
-1.6720000000e+02   1.8948675442e+00 -7.3628330000e-02
-1.6715000000e+02   1.8985514732e+00 -7.3727410000e-02
-1.6710000000e+02   1.9022402852e+00 -7.3823650000e-02
-1.6705000000e+02   1.9059338382e+00 -7.3917060000e-02
-1.6700000000e+02   1.9096319912e+00 -7.4007650000e-02
-1.6695000000e+02   1.9133346032e+00 -7.4095410000e-02
-1.6690000000e+02   1.9170415322e+00 -7.4180320000e-02
-1.6685000000e+02   1.9207526352e+00 -7.4262410000e-02
-1.6680000000e+02   1.9244677732e+00 -7.4341670000e-02
-1.6675000000e+02   1.9281868022e+00 -7.4418090000e-02
-1.6670000000e+02   1.9319095822e+00 -7.4491680000e-02
-1.6665000000e+02   1.9356359702e+00 -7.4562440000e-02
-1.6660000000e+02   1.9393658262e+00 -7.4630380000e-02
-1.6655000000e+02   1.9430990082e+00 -7.4695480000e-02
-1.6650000000e+02   1.9468353742e+00 -7.4757740000e-02
-1.6645000000e+02   1.9505747822e+00 -7.4817170000e-02
-1.6640000000e+02   1.9543170912e+00 -7.4873780000e-02
-1.6635000000e+02   1.9580621602e+00 -7.4927550000e-02
-1.6630000000e+02   1.9618098462e+00 -7.4978490000e-02
-1.6625000000e+02   1.9655600092e+00 -7.5026600000e-02
-1.6620000000e+02   1.9693125062e+00 -7.5071870000e-02
-1.6615000000e+02   1.9730671962e+00 -7.5114320000e-02
-1.6610000000e+02   1.9768239382e+00 -7.5153940000e-02
-1.6605000000e+02   1.9805825902e+00 -7.5190710000e-02
-1.6600000000e+02   1.9843430092e+00 -7.5224660000e-02
-1.6595000000e+02   1.9881050562e+00 -7.5255790000e-02
-1.6590000000e+02   1.9918685882e+00 -7.5284070000e-02
-1.6585000000e+02   1.9956334632e+00 -7.5309520000e-02
-1.6580000000e+02   1.9993995402e+00 -7.5332150000e-02
-1.6575000000e+02   2.0031666782e+00 -7.5351940000e-02
-1.6570000000e+02   2.0069347342e+00 -7.5368900000e-02
-1.6565000000e+02   2.0107035682e+00 -7.5383030000e-02
-1.6560000000e+02   2.0144730372e+00 -7.5394320000e-02
-1.6555000000e+02   2.0182430002e+00 -7.5402790000e-02
-1.6550000000e+02   2.0220133162e+00 -7.5408430000e-02
-1.6545000000e+02   2.0257838432e+00 -7.5411230000e-02
-1.6540000000e+02   2.0295544392e+00 -7.5411190000e-02
-1.6535000000e+02   2.0333249622e+00 -7.5408330000e-02
-1.6530000000e+02   2.0370952722e+00 -7.5402640000e-02
-1.6525000000e+02   2.0408652262e+00 -7.5394120000e-02
-1.6520000000e+02   2.0446346842e+00 -7.5382760000e-02
-1.6515000000e+02   2.0484035022e+00 -7.5368570000e-02
-1.6510000000e+02   2.0521715412e+00 -7.5351550000e-02
-1.6505000000e+02   2.0559386572e+00 -7.5331690000e-02
-1.6500000000e+02   2.0597047102e+00 -7.5309020000e-02
-1.6495000000e+02   2.0634695592e+00 -7.5283510000e-02
-1.6490000000e+02   2.0672330612e+00 -7.5255150000e-02
-1.6485000000e+02   2.0709950742e+00 -7.5223970000e-02
-1.6480000000e+02   2.0747554582e+00 -7.5189970000e-02
-1.6475000000e+02   2.0785140712e+00 -7.5153130000e-02
-1.6470000000e+02   2.0822707712e+00 -7.5113450000e-02
-1.6465000000e+02   2.0860254162e+00 -7.5070940000e-02
-1.6460000000e+02   2.0897778652e+00 -7.5025610000e-02
-1.6455000000e+02   2.0935279772e+00 -7.4977440000e-02
-1.6450000000e+02   2.0972756092e+00 -7.4926440000e-02
-1.6445000000e+02   2.1010206212e+00 -7.4872610000e-02
-1.6440000000e+02   2.1047628702e+00 -7.4815950000e-02
-1.6435000000e+02   2.1085022162e+00 -7.4756460000e-02
-1.6430000000e+02   2.1122385162e+00 -7.4694120000e-02
-1.6425000000e+02   2.1159716282e+00 -7.4628960000e-02
-1.6420000000e+02   2.1197014122e+00 -7.4560980000e-02
-1.6415000000e+02   2.1234277262e+00 -7.4490160000e-02
-1.6410000000e+02   2.1271504282e+00 -7.4416500000e-02
-1.6405000000e+02   2.1308693762e+00 -7.4340020000e-02
-1.6400000000e+02   2.1345844302e+00 -7.4260710000e-02
-1.6395000000e+02   2.1382954472e+00 -7.4178550000e-02
-1.6390000000e+02   2.1420022852e+00 -7.4093570000e-02
-1.6385000000e+02   2.1457048042e+00 -7.4005760000e-02
-1.6380000000e+02   2.1494028612e+00 -7.3915120000e-02
-1.6375000000e+02   2.1530963162e+00 -7.3821650000e-02
-1.6370000000e+02   2.1567850262e+00 -7.3725340000e-02
-1.6365000000e+02   2.1604688502e+00 -7.3626200000e-02
-1.6360000000e+02   2.1641476462e+00 -7.3524230000e-02
-1.6355000000e+02   2.1678212732e+00 -7.3419430000e-02
-1.6350000000e+02   2.1714895892e+00 -7.3311790000e-02
-1.6345000000e+02   2.1751524522e+00 -7.3201330000e-02
-1.6340000000e+02   2.1788097222e+00 -7.3088040000e-02
-1.6335000000e+02   2.1824612562e+00 -7.2971900000e-02
-1.6330000000e+02   2.1861069122e+00 -7.2852940000e-02
-1.6325000000e+02   2.1897465502e+00 -7.2731160000e-02
-1.6320000000e+02   2.1933800282e+00 -7.2606530000e-02
-1.6315000000e+02   2.1970072032e+00 -7.2479070000e-02
-1.6310000000e+02   2.2006279352e+00 -7.2348790000e-02
-1.6305000000e+02   2.2042420822e+00 -7.2215680000e-02
-1.6300000000e+02   2.2078495032e+00 -7.2079730000e-02
-1.6295000000e+02   2.2114500552e+00 -7.1940940000e-02
-1.6290000000e+02   2.2150435972e+00 -7.1799330000e-02
-1.6285000000e+02   2.2186299882e+00 -7.1656330000e-02
-1.6280000000e+02   2.2222092302e+00 -7.1550880000e-02
-1.6275000000e+02   2.2257850762e+00 -7.1500240000e-02
-1.6270000000e+02   2.2293592542e+00 -7.1467220000e-02
-1.6265000000e+02   2.2329317982e+00 -7.1434880000e-02
-1.6260000000e+02   2.2365027422e+00 -7.1403210000e-02
-1.6255000000e+02   2.2400721192e+00 -7.1372210000e-02
-1.6250000000e+02   2.2436399632e+00 -7.1341880000e-02
-1.6245000000e+02   2.2472063072e+00 -7.1312230000e-02
-1.6240000000e+02   2.2507711862e+00 -7.1283260000e-02
-1.6235000000e+02   2.2543346332e+00 -7.1254950000e-02
-1.6230000000e+02   2.2578966812e+00 -7.1227310000e-02
-1.6225000000e+02   2.2614573642e+00 -7.1200340000e-02
-1.6220000000e+02   2.2650167152e+00 -7.1174060000e-02
-1.6215000000e+02   2.2685747702e+00 -7.1148450000e-02
-1.6210000000e+02   2.2721315602e+00 -7.1123490000e-02
-1.6205000000e+02   2.2756871192e+00 -7.1099220000e-02
-1.6200000000e+02   2.2792414822e+00 -7.1075630000e-02
-1.6195000000e+02   2.2827946822e+00 -7.1052700000e-02
