#Distance(nm)      Energy(kJ/mol)     Force(kJ/mol/nm)
-1.8000000000e+02   1.0017445799e+00 -1.5417125120e+00
-1.7995000000e+02   1.0016730879e+00 1.9303700000e-03
-1.7990000000e+02   1.0015515429e+00 2.9262800000e-03
-1.7985000000e+02   1.0013804599e+00 3.9119300000e-03
-1.7980000000e+02   1.0011603499e+00 4.8873100000e-03
-1.7975000000e+02   1.0008917289e+00 5.8524200000e-03
-1.7970000000e+02   1.0005751079e+00 6.8072800000e-03
-1.7965000000e+02   1.0002110009e+00 7.7518700000e-03
-1.7960000000e+02   9.9979992086e-01 8.6861900000e-03
-1.7955000000e+02   9.9934238186e-01 9.6102500000e-03
-1.7950000000e+02   9.9883889586e-01 1.0524060000e-02
-1.7945000000e+02   9.9828997586e-01 1.1427590000e-02
-1.7940000000e+02   9.9769613686e-01 1.2320850000e-02
-1.7935000000e+02   9.9705789086e-01 1.3203860000e-02
-1.7930000000e+02   9.9637575086e-01 1.4076610000e-02
-1.7925000000e+02   9.9565022986e-01 1.4939090000e-02
-1.7920000000e+02   9.9488184186e-01 1.5791300000e-02
-1.7915000000e+02   9.9407109986e-01 1.6633250000e-02
-1.7910000000e+02   9.9321851686e-01 1.7464940000e-02
-1.7905000000e+02   9.9232460586e-01 1.8286360000e-02
-1.7900000000e+02   9.9138988086e-01 1.9097520000e-02
-1.7895000000e+02   9.9041485386e-01 1.9898420000e-02
-1.7890000000e+02   9.8940003886e-01 2.0689051000e-02
-1.7885000000e+02   9.8834594876e-01 2.1469420000e-02
-1.7880000000e+02   9.8725309686e-01 2.2239523000e-02
-1.7875000000e+02   9.8612199646e-01 2.2999363000e-02
-1.7870000000e+02   9.8495316056e-01 2.3748940000e-02
-1.7865000000e+02   9.8374710246e-01 2.4488253000e-02
-1.7860000000e+02   9.8250433526e-01 2.5217302000e-02
-1.7855000000e+02   9.8122537226e-01 2.5936087000e-02
-1.7850000000e+02   9.7991072656e-01 2.6644609000e-02
-1.7845000000e+02   9.7856091136e-01 2.7342867000e-02
-1.7840000000e+02   9.7717643986e-01 2.8030860000e-02
-1.7835000000e+02   9.7575782536e-01 2.8708589000e-02
-1.7830000000e+02   9.7430558096e-01 2.9376056000e-02
-1.7825000000e+02   9.7282021976e-01 3.0033259000e-02
-1.7820000000e+02   9.7130225506e-01 3.0680197000e-02
-1.7815000000e+02   9.6975220006e-01 3.1316871000e-02
-1.7810000000e+02   9.6817056796e-01 3.1943281000e-02
-1.7805000000e+02   9.6655787196e-01 3.2559429000e-02
-1.7800000000e+02   9.6491462506e-01 3.3165312000e-02
-1.7795000000e+02   9.6324134076e-01 3.3760931000e-02
-1.7790000000e+02   9.6153853196e-01 3.4346287000e-02
-1.7785000000e+02   9.5980671206e-01 3.4921378000e-02
-1.7780000000e+02   9.5804639416e-01 3.5486206000e-02
-1.7775000000e+02   9.5625809146e-01 3.6040770000e-02
-1.7770000000e+02   9.5444231716e-01 3.6585069000e-02
-1.7765000000e+02   9.5259958456e-01 3.7119106000e-02
-1.7760000000e+02   9.5073040656e-01 3.7642879000e-02
-1.7755000000e+02   9.4883529666e-01 3.8156387000e-02
-1.7750000000e+02   9.4691476786e-01 3.8659632000e-02
-1.7745000000e+02   9.4496933346e-01 3.9152613000e-02
-1.7740000000e+02   9.4299950656e-01 3.9635330000e-02
-1.7735000000e+02   9.4100580046e-01 4.0107783000e-02
-1.7730000000e+02   9.3898872826e-01 4.0569973000e-02
-1.7725000000e+02   9.3694880316e-01 4.1021898000e-02
-1.7720000000e+02   9.3488653846e-01 4.1463560000e-02
-1.7715000000e+02   9.3280244716e-01 4.1894958000e-02
-1.7710000000e+02   9.3069704266e-01 4.2316092000e-02
-1.7705000000e+02   9.2857083796e-01 4.2726962000e-02
-1.7700000000e+02   9.2642434646e-01 4.3127568000e-02
-1.7695000000e+02   9.2425808116e-01 4.3517912000e-02
-1.7690000000e+02   9.2207255526e-01 4.3897991000e-02
-1.7685000000e+02   9.1986828206e-01 4.4267805000e-02
-1.7680000000e+02   9.1764577476e-01 4.4627356000e-02
-1.7675000000e+02   9.1540554646e-01 4.4976644000e-02
-1.7670000000e+02   9.1314811036e-01 4.5315667000e-02
-1.7665000000e+02   9.1087397976e-01 4.5644426000e-02
-1.7660000000e+02   9.0858366776e-01 4.5962922000e-02
-1.7655000000e+02   9.0627768756e-01 4.6271155000e-02
-1.7650000000e+02   9.0395655226e-01 4.6569123000e-02
-1.7645000000e+02   9.0162077526e-01 4.6856826000e-02
-1.7640000000e+02   8.9927086966e-01 4.7134267000e-02
-1.7635000000e+02   8.9690734856e-01 4.7401444000e-02
-1.7630000000e+02   8.9453072526e-01 4.7658357000e-02
-1.7625000000e+02   8.9214151286e-01 4.7905006000e-02
-1.7620000000e+02   8.8974022466e-01 4.8141391000e-02
-1.7615000000e+02   8.8732737376e-01 4.8367512000e-02
-1.7610000000e+02   8.8490347346e-01 4.8583370000e-02
-1.7605000000e+02   8.8246903676e-01 4.8788964000e-02
-1.7600000000e+02   8.8002457706e-01 4.8984293000e-02
-1.7595000000e+02   8.7757060746e-01 4.9169359000e-02
-1.7590000000e+02   8.7510764116e-01 4.9344161000e-02
-1.7585000000e+02   8.7263619136e-01 4.9508699000e-02
-1.7580000000e+02   8.7015677126e-01 4.9662974000e-02
-1.7575000000e+02   8.6766989396e-01 4.9806985000e-02
-1.7570000000e+02   8.6517607276e-01 4.9940732000e-02
-1.7565000000e+02   8.6267582076e-01 5.0064215000e-02
-1.7560000000e+02   8.6016965126e-01 5.0177433000e-02
-1.7555000000e+02   8.5765807746e-01 5.0280389000e-02
-1.7550000000e+02   8.5514161236e-01 5.0373081000e-02
-1.7545000000e+02   8.5262076936e-01 5.0455508000e-02
-1.7540000000e+02   8.5009606156e-01 5.0527672000e-02
-1.7535000000e+02   8.4756800216e-01 5.0589572000e-02
-1.7530000000e+02   8.4503710436e-01 5.0641208000e-02
-1.7525000000e+02   8.4250388136e-01 5.0682581000e-02
-1.7520000000e+02   8.3996884626e-01 5.0713690000e-02
-1.7515000000e+02   8.3743251236e-01 5.0734534000e-02
-1.7510000000e+02   8.3489539286e-01 5.0745114000e-02
-1.7505000000e+02   8.3235800096e-01 5.0745431000e-02
-1.7500000000e+02   8.2982084976e-01 5.0735485000e-02
-1.7495000000e+02   8.2728445246e-01 5.0715275000e-02
-1.7490000000e+02   8.2474932226e-01 5.0684800000e-02
-1.7485000000e+02   8.2221597246e-01 5.0644061000e-02
-1.7480000000e+02   8.1968491616e-01 5.0593059000e-02
-1.7475000000e+02   8.1715666656e-01 5.0531793000e-02
-1.7470000000e+02   8.1463173686e-01 5.0460264000e-02
-1.7465000000e+02   8.1211064016e-01 5.0378470000e-02
-1.7460000000e+02   8.0959388986e-01 5.0286412000e-02
-1.7455000000e+02   8.0708199896e-01 5.0184091000e-02
-1.7450000000e+02   8.0457548076e-01 5.0071506000e-02
-1.7445000000e+02   8.0207484836e-01 4.9948657000e-02
-1.7440000000e+02   7.9958061506e-01 4.9815544000e-02
-1.7435000000e+02   7.9709329396e-01 4.9672168000e-02
-1.7430000000e+02   7.9461339826e-01 4.9571737000e-02
-1.7425000000e+02   7.9213612026e-01 4.9985385000e-02
-1.7420000000e+02   7.8961485976e-01 5.0965731000e-02
-1.7415000000e+02   7.8703954716e-01 5.2035457000e-02
-1.7410000000e+02   7.8441131406e-01 5.3082548000e-02
-1.7405000000e+02   7.8173129236e-01 5.4107002000e-02
-1.7400000000e+02   7.7900061386e-01 5.5108822000e-02
-1.7395000000e+02   7.7622041016e-01 5.6088008000e-02
-1.7390000000e+02   7.7339181306e-01 5.7044557000e-02
-1.7385000000e+02   7.7051595446e-01 5.7978470000e-02
-1.7380000000e+02   7.6759396606e-01 5.8889748000e-02
-1.7375000000e+02   7.6462697966e-01 5.9778391000e-02
-1.7370000000e+02   7.6161612696e-01 6.0644399000e-02
-1.7365000000e+02   7.5856253976e-01 6.1487772000e-02
-1.7360000000e+02   7.5546734976e-01 6.2308508000e-02
-1.7355000000e+02   7.5233168896e-01 6.3106609000e-02
-1.7350000000e+02   7.4915668886e-01 6.3882076000e-02
-1.7345000000e+02   7.4594348136e-01 6.4634907000e-02
-1.7340000000e+02   7.4269319816e-01 6.5365102000e-02
-1.7335000000e+02   7.3940697116e-01 6.6072662000e-02
-1.7330000000e+02   7.3608593196e-01 6.6757587000e-02
-1.7325000000e+02   7.3273121246e-01 6.7419876000e-02
-1.7320000000e+02   7.2934394436e-01 6.8059530000e-02
-1.7315000000e+02   7.2592525946e-01 6.8676548000e-02
-1.7310000000e+02   7.2247628956e-01 6.9270931000e-02
-1.7305000000e+02   7.1899816636e-01 6.9842679000e-02
-1.7300000000e+02   7.1549202166e-01 7.0391792000e-02
-1.7295000000e+02   7.1195898716e-01 7.0918269000e-02
-1.7290000000e+02   7.0840019476e-01 7.1422110000e-02
-1.7285000000e+02   7.0481677616e-01 7.1903317000e-02
-1.7280000000e+02   7.0120986306e-01 7.2361888000e-02
-1.7275000000e+02   6.9758058736e-01 7.2797823000e-02
-1.7270000000e+02   6.9393008076e-01 7.3211123000e-02
-1.7265000000e+02   6.9025947506e-01 7.3601788000e-02
-1.7260000000e+02   6.8656990196e-01 7.3969817000e-02
-1.7255000000e+02   6.8286249336e-01 7.4315211000e-02
-1.7250000000e+02   6.7913838086e-01 7.4637971000e-02
-1.7245000000e+02   6.7539869626e-01 7.4938094000e-02
-1.7240000000e+02   6.7164457146e-01 7.5215581000e-02
-1.7235000000e+02   6.6787713816e-01 7.5470434000e-02
-1.7230000000e+02   6.6409752806e-01 7.5702651000e-02
-1.7225000000e+02   6.6030687306e-01 7.5912232000e-02
-1.7220000000e+02   6.5650630486e-01 7.6099179000e-02
-1.7215000000e+02   6.5269695516e-01 7.6263491000e-02
-1.7210000000e+02   6.4887995576e-01 7.6405166000e-02
-1.7205000000e+02   6.4505643856e-01 7.6524206000e-02
-1.7200000000e+02   6.4122753516e-01 7.6620611000e-02
-1.7195000000e+02   6.3739437746e-01 7.6694381000e-02
-1.7190000000e+02   6.3355809706e-01 7.6745515000e-02
-1.7185000000e+02   6.2971982596e-01 7.6774013000e-02
-1.7180000000e+02   6.2588069576e-01 7.6779877000e-02
-1.7175000000e+02   6.2204183826e-01 7.6763105000e-02
-1.7170000000e+02   6.1820438526e-01 7.6723698000e-02
-1.7165000000e+02   6.1436946846e-01 7.6661656000e-02
-1.7160000000e+02   6.1053821966e-01 7.6576977000e-02
-1.7155000000e+02   6.0671177076e-01 7.6469663000e-02
-1.7150000000e+02   6.0289125336e-01 7.6339715000e-02
-1.7145000000e+02   5.9907779926e-01 7.6187131000e-02
-1.7140000000e+02   5.9527254026e-01 7.6011911000e-02
-1.7135000000e+02   5.9147660816e-01 7.5814056000e-02
-1.7130000000e+02   5.8769113466e-01 7.5593566000e-02
-1.7125000000e+02   5.8391725156e-01 7.5350440000e-02
-1.7120000000e+02   5.8015609066e-01 7.5084679000e-02
-1.7115000000e+02   5.7640878366e-01 7.4796283000e-02
-1.7110000000e+02   5.7267646236e-01 7.4485251000e-02
-1.7105000000e+02   5.6896025856e-01 7.4151584000e-02
-1.7100000000e+02   5.6526130396e-01 7.3795281000e-02
-1.7095000000e+02   5.6158073046e-01 7.3416343000e-02
-1.7090000000e+02   5.5791966966e-01 7.3014770000e-02
-1.7085000000e+02   5.5427925346e-01 7.2590562000e-02
-1.7080000000e+02   5.5066061346e-01 7.2143718000e-02
-1.7075000000e+02   5.4706488166e-01 7.1674237000e-02
-1.7070000000e+02   5.4349318976e-01 7.1182123000e-02
-1.7065000000e+02   5.3994666936e-01 7.0667373000e-02
-1.7060000000e+02   5.3642645246e-01 7.0129987000e-02
-1.7055000000e+02   5.3293367066e-01 6.9569967000e-02
-1.7050000000e+02   5.2946945576e-01 6.8987310000e-02
-1.7045000000e+02   5.2603493966e-01 6.8382018000e-02
-1.7040000000e+02   5.2263125396e-01 6.7754092000e-02
-1.7035000000e+02   5.1925953046e-01 6.7103529000e-02
-1.7030000000e+02   5.1592090106e-01 6.6430331000e-02
-1.7025000000e+02   5.1261649736e-01 6.5734499000e-02
-1.7020000000e+02   5.0934745116e-01 6.5016030000e-02
-1.7015000000e+02   5.0611489436e-01 6.4274925000e-02
-1.7010000000e+02   5.0291995866e-01 6.3511186000e-02
-1.7005000000e+02   4.9976377576e-01 6.2724812000e-02
-1.7000000000e+02   4.9664747746e-01 6.1915802000e-02
-1.6995000000e+02   4.9357219556e-01 6.1084156000e-02
-1.6990000000e+02   4.9053906186e-01 6.0229876000e-02
-1.6985000000e+02   4.8754920796e-01 5.9352960000e-02
-1.6980000000e+02   4.8460376586e-01 5.8453408000e-02
-1.6975000000e+02   4.8170386716e-01 5.7531221000e-02
-1.6970000000e+02   4.7885064376e-01 5.6586398000e-02
-1.6965000000e+02   4.7604522736e-01 5.5618941000e-02
-1.6960000000e+02   4.7328874966e-01 5.4628849000e-02
-1.6955000000e+02   4.7058234246e-01 5.3616120000e-02
-1.6950000000e+02   4.6792713766e-01 5.2580756000e-02
-1.6945000000e+02   4.6532426686e-01 5.1522757000e-02
-1.6940000000e+02   4.6277486196e-01 5.0442122000e-02
-1.6935000000e+02   4.6028005466e-01 4.9338852000e-02
-1.6930000000e+02   4.5784097676e-01 4.8212947000e-02
-1.6925000000e+02   4.5545875996e-01 4.7064407000e-02
-1.6920000000e+02   4.5313453606e-01 4.5893231000e-02
-1.6915000000e+02   4.5086943686e-01 4.4699419000e-02
-1.6910000000e+02   4.4866459416e-01 4.3482972000e-02
-1.6905000000e+02   4.4652113966e-01 4.2243891000e-02
-1.6900000000e+02   4.4444020506e-01 4.0982173000e-02
-1.6895000000e+02   4.4242292236e-01 3.9697820000e-02
-1.6890000000e+02   4.4047042306e-01 3.8390832000e-02
-1.6885000000e+02   4.3858383916e-01 3.7061208000e-02
-1.6880000000e+02   4.3676430226e-01 3.5708949000e-02
-1.6875000000e+02   4.3501294426e-01 3.4334055000e-02
-1.6870000000e+02   4.3333089676e-01 3.2936525000e-02
-1.6865000000e+02   4.3171929176e-01 3.1516359000e-02
-1.6860000000e+02   4.3017926086e-01 3.0073560000e-02
-1.6855000000e+02   4.2871193576e-01 2.8840905000e-02
-1.6850000000e+02   4.2729517036e-01 2.8278109000e-02
-1.6845000000e+02   4.2588412486e-01 2.8175639000e-02
-1.6840000000e+02   4.2447760646e-01 2.8085378000e-02
-1.6835000000e+02   4.2307558706e-01 2.7995683000e-02
-1.6830000000e+02   4.2167803816e-01 2.7906553000e-02
-1.6825000000e+02   4.2028493176e-01 2.7817988000e-02
-1.6820000000e+02   4.1889623936e-01 2.7729988000e-02
-1.6815000000e+02   4.1751193296e-01 2.7642552000e-02
-1.6810000000e+02   4.1613198416e-01 2.7555682000e-02
-1.6805000000e+02   4.1475636476e-01 2.7469376000e-02
-1.6800000000e+02   4.1338504656e-01 2.7383636000e-02
-1.6795000000e+02   4.1201800116e-01 2.7298462000e-02
-1.6790000000e+02   4.1065520036e-01 2.7213851000e-02
-1.6785000000e+02   4.0929661606e-01 2.7129805000e-02
-1.6780000000e+02   4.0794221986e-01 2.7046325000e-02
-1.6775000000e+02   4.0659198356e-01 2.6963410000e-02
-1.6770000000e+02   4.0524587886e-01 2.6881060000e-02
-1.6765000000e+02   4.0390387756e-01 2.6799275000e-02
-1.6760000000e+02   4.0256595136e-01 2.6718055000e-02
-1.6755000000e+02   4.0123207206e-01 2.6637399000e-02
-1.6750000000e+02   3.9990221146e-01 2.6557309000e-02
-1.6745000000e+02   3.9857634116e-01 2.6477784000e-02
-1.6740000000e+02   3.9725443306e-01 2.6398823000e-02
-1.6735000000e+02   3.9593645886e-01 2.6320428000e-02
-1.6730000000e+02   3.9462239026e-01 2.6242598000e-02
-1.6725000000e+02   3.9331219906e-01 2.6165333000e-02
-1.6720000000e+02   3.9200585696e-01 2.6088633000e-02
-1.6715000000e+02   3.9070333576e-01 2.6012497000e-02
-1.6710000000e+02   3.8940460726e-01 2.5936927000e-02
-1.6705000000e+02   3.8810964306e-01 2.5861922000e-02
-1.6700000000e+02   3.8681841506e-01 2.5787482000e-02
-1.6695000000e+02   3.8553089486e-01 2.5713607000e-02
-1.6690000000e+02   3.8424705436e-01 2.5640296000e-02
-1.6685000000e+02   3.8296686526e-01 2.5567551000e-02
-1.6680000000e+02   3.8169029926e-01 2.5495371000e-02
-1.6675000000e+02   3.8041732816e-01 2.5423755000e-02
-1.6670000000e+02   3.7914792376e-01 2.5352705000e-02
-1.6665000000e+02   3.7788205766e-01 2.5282220000e-02
-1.6660000000e+02   3.7661970176e-01 2.5212300000e-02
-1.6655000000e+02   3.7536082766e-01 2.5142945000e-02
-1.6650000000e+02   3.7410540726e-01 2.5074154000e-02
-1.6645000000e+02   3.7285341226e-01 2.5005929000e-02
-1.6640000000e+02   3.7160481436e-01 2.4938269000e-02
-1.6635000000e+02   3.7035958536e-01 2.4871174000e-02
-1.6630000000e+02   3.6911769696e-01 2.4804644000e-02
-1.6625000000e+02   3.6787912096e-01 2.4738678000e-02
-1.6620000000e+02   3.6664382916e-01 2.4673278000e-02
-1.6615000000e+02   3.6541179316e-01 2.4608443000e-02
-1.6610000000e+02   3.6418298486e-01 2.4544173000e-02
-1.6605000000e+02   3.6295737586e-01 2.4480468000e-02
-1.6600000000e+02   3.6173493806e-01 2.4417327000e-02
-1.6595000000e+02   3.6051564316e-01 2.4354752000e-02
-1.6590000000e+02   3.5929946286e-01 2.4292742000e-02
-1.6585000000e+02   3.5808636896e-01 2.4231297000e-02
-1.6580000000e+02   3.5687633316e-01 2.4170417000e-02
-1.6575000000e+02   3.5566932726e-01 2.4110101000e-02
-1.6570000000e+02   3.5446532306e-01 2.4050351000e-02
-1.6565000000e+02   3.5326429216e-01 2.3991166000e-02
-1.6560000000e+02   3.5206620646e-01 2.3932546000e-02
-1.6555000000e+02   3.5087103756e-01 2.3874491000e-02
-1.6550000000e+02   3.4967875736e-01 2.3817000000e-02
-1.6545000000e+02   3.4848933756e-01 2.3760075000e-02
-1.6540000000e+02   3.4730274986e-01 2.3703715000e-02
-1.6535000000e+02   3.4611896606e-01 2.3647920000e-02
-1.6530000000e+02   3.4493795786e-01 2.3592690000e-02
-1.6525000000e+02   3.4375969706e-01 2.3538024000e-02
-1.6520000000e+02   3.4258415546e-01 2.3483924000e-02
-1.6515000000e+02   3.4141130466e-01 2.3430390000e-02
-1.6510000000e+02   3.4024111646e-01 2.3377419000e-02
-1.6505000000e+02   3.3907356276e-01 2.3325013000e-02
-1.6500000000e+02   3.3790861516e-01 2.3273174000e-02
-1.6495000000e+02   3.3674624536e-01 2.3221899000e-02
-1.6490000000e+02   3.3558642526e-01 2.3171188000e-02
-1.6485000000e+02   3.3442912656e-01 2.3121043000e-02
-1.6480000000e+02   3.3327432096e-01 2.3071463000e-02
-1.6475000000e+02   3.3212198026e-01 2.3022448000e-02
-1.6470000000e+02   3.3097207616e-01 2.2973997000e-02
-1.6465000000e+02   3.2982458056e-01 2.2926112000e-02
-1.6460000000e+02   3.2867946496e-01 2.2878793000e-02
-1.6455000000e+02   3.2753670126e-01 2.2832037000e-02
-1.6450000000e+02   3.2639626126e-01 2.2785846000e-02
-1.6445000000e+02   3.2525811666e-01 2.2740222000e-02
-1.6440000000e+02   3.2412223906e-01 2.2695162000e-02
-1.6435000000e+02   3.2298860046e-01 2.2650666000e-02
-1.6430000000e+02   3.2185717246e-01 2.2606736000e-02
-1.6425000000e+02   3.2072792686e-01 2.2563371000e-02
-1.6420000000e+02   3.1960083536e-01 2.2520571000e-02
-1.6415000000e+02   3.1847586976e-01 2.2478336000e-02
-1.6410000000e+02   3.1735300176e-01 2.2436666000e-02
-1.6405000000e+02   3.1623220316e-01 2.2395560000e-02
-1.6400000000e+02   3.1511344576e-01 2.2355020000e-02
-1.6395000000e+02   3.1399670116e-01 2.2315045000e-02
-1.6390000000e+02   3.1288194126e-01 2.2275635000e-02
-1.6385000000e+02   3.1176913766e-01 2.2236790000e-02
-1.6380000000e+02   3.1065826226e-01 2.2198510000e-02
-1.6375000000e+02   3.0954928666e-01 2.2160795000e-02
-1.6370000000e+02   3.0844218276e-01 2.2123644000e-02
-1.6365000000e+02   3.0733692226e-01 2.2087059000e-02
-1.6360000000e+02   3.0623347686e-01 2.2051039000e-02
-1.6355000000e+02   3.0513181836e-01 2.2015584000e-02
-1.6350000000e+02   3.0403191846e-01 2.1980694000e-02
-1.6345000000e+02   3.0293374896e-01 2.1946368000e-02
-1.6340000000e+02   3.0183728166e-01 2.1912608000e-02
-1.6335000000e+02   3.0074248816e-01 2.1879414000e-02
-1.6330000000e+02   2.9964934026e-01 2.1846784000e-02
-1.6325000000e+02   2.9855780976e-01 2.1814718000e-02
-1.6320000000e+02   2.9746786846e-01 2.1783218000e-02
-1.6315000000e+02   2.9637948796e-01 2.1752283000e-02
-1.6310000000e+02   2.9529264016e-01 2.1721912000e-02
-1.6305000000e+02   2.9420729676e-01 2.1692107000e-02
-1.6300000000e+02   2.9312342946e-01 2.1662868000e-02
-1.6295000000e+02   2.9204100996e-01 2.1634193000e-02
-1.6290000000e+02   2.9096001016e-01 2.1606082000e-02
-1.6285000000e+02   2.8988040176e-01 2.1579119000e-02
-1.6280000000e+02   2.8880209826e-01 2.1568638000e-02
-1.6275000000e+02   2.8772353796e-01 2.1580401000e-02
-1.6270000000e+02   2.8664405816e-01 2.1598468000e-02
-1.6265000000e+02   2.8556369116e-01 2.1615887000e-02
-1.6260000000e+02   2.8448246946e-01 2.1632657000e-02
-1.6255000000e+02   2.8340042546e-01 2.1648777000e-02
-1.6250000000e+02   2.8231759176e-01 2.1664249000e-02
-1.6245000000e+02   2.8123400056e-01 2.1679073000e-02
-1.6240000000e+02   2.8014968446e-01 2.1693246000e-02
-1.6235000000e+02   2.7906467596e-01 2.1706772000e-02
-1.6230000000e+02   2.7797900726e-01 2.1719650000e-02
-1.6225000000e+02   2.7689271096e-01 2.1731877000e-02
-1.6220000000e+02   2.7580581956e-01 2.1743456000e-02
-1.6215000000e+02   2.7471836536e-01 2.1754388000e-02
-1.6210000000e+02   2.7363038076e-01 2.1764669000e-02
-1.6205000000e+02   2.7254189846e-01 2.1774302000e-02
-1.6200000000e+02   2.7145295056e-01 2.1783287000e-02
-1.6195000000e+02   2.7036356976e-01 2.1791621000e-02
-1.6190000000e+02   2.6927378846e-01 2.1799308000e-02
-1.6185000000e+02   2.6818363896e-01 2.1806347000e-02
-1.6180000000e+02   2.6709315376e-01 2.1812736000e-02
-1.6175000000e+02   2.6600236536e-01 2.1818475000e-02
-1.6170000000e+02   2.6491130626e-01 2.1823567000e-02
-1.6165000000e+02   2.6382000866e-01 2.1828011000e-02
-1.6160000000e+02   2.6272850516e-01 2.1831804000e-02
