#Distance(nm)      Energy(kJ/mol)     Force(kJ/mol/nm)
-1.8000000000e+02   1.1723547139e+00 -1.1934101300e+00
-1.7995000000e+02   1.1716475559e+00 1.4491070000e-02
-1.7990000000e+02   1.1709056069e+00 1.5183920000e-02
-1.7985000000e+02   1.1701291639e+00 1.5870820000e-02
-1.7980000000e+02   1.1693185249e+00 1.6551770000e-02
-1.7975000000e+02   1.1684739869e+00 1.7226780000e-02
-1.7970000000e+02   1.1675958469e+00 1.7895830000e-02
-1.7965000000e+02   1.1666844039e+00 1.8558940000e-02
-1.7960000000e+02   1.1657399529e+00 1.9216110000e-02
-1.7955000000e+02   1.1647627929e+00 1.9867320000e-02
-1.7950000000e+02   1.1637532209e+00 2.0512580000e-02
-1.7945000000e+02   1.1627115349e+00 2.1151910000e-02
-1.7940000000e+02   1.1616380299e+00 2.1785290000e-02
-1.7935000000e+02   1.1605330059e+00 2.2412710000e-02
-1.7930000000e+02   1.1593967589e+00 2.3034190000e-02
-1.7925000000e+02   1.1582295869e+00 2.3649730000e-02
-1.7920000000e+02   1.1570317859e+00 2.4259320000e-02
-1.7915000000e+02   1.1558036549e+00 2.4862950000e-02
-1.7910000000e+02   1.1545454909e+00 2.5460650000e-02
-1.7905000000e+02   1.1532575899e+00 2.6052400000e-02
-1.7900000000e+02   1.1519402509e+00 2.6638190000e-02
-1.7895000000e+02   1.1505937709e+00 2.7218050000e-02
-1.7890000000e+02   1.1492184459e+00 2.7791960000e-02
-1.7885000000e+02   1.1478145749e+00 2.8359910000e-02
-1.7880000000e+02   1.1463824549e+00 2.8921920000e-02
-1.7875000000e+02   1.1449223829e+00 2.9477990000e-02
-1.7870000000e+02   1.1434346559e+00 3.0028110000e-02
-1.7865000000e+02   1.1419195719e+00 3.0572280000e-02
-1.7860000000e+02   1.1403774279e+00 3.1110500000e-02
-1.7855000000e+02   1.1388085219e+00 3.1642780000e-02
-1.7850000000e+02   1.1372131499e+00 3.2169110000e-02
-1.7845000000e+02   1.1355916109e+00 3.2689490000e-02
-1.7840000000e+02   1.1339442009e+00 3.3203930000e-02
-1.7835000000e+02   1.1322712179e+00 3.3712420000e-02
-1.7830000000e+02   1.1305729589e+00 3.4214960000e-02
-1.7825000000e+02   1.1288497219e+00 3.4711550000e-02
-1.7820000000e+02   1.1271018039e+00 3.5202200000e-02
-1.7815000000e+02   1.1253295019e+00 3.5686910000e-02
-1.7810000000e+02   1.1235331129e+00 3.6165660000e-02
-1.7805000000e+02   1.1217129359e+00 3.6638470000e-02
-1.7800000000e+02   1.1198692659e+00 3.7105330000e-02
-1.7795000000e+02   1.1180024029e+00 3.7566240000e-02
-1.7790000000e+02   1.1161126419e+00 3.8021210000e-02
-1.7785000000e+02   1.1142002819e+00 3.8470230000e-02
-1.7780000000e+02   1.1122656189e+00 3.8913310000e-02
-1.7775000000e+02   1.1103089509e+00 3.9350430000e-02
-1.7770000000e+02   1.1083305759e+00 3.9781600000e-02
-1.7765000000e+02   1.1063307909e+00 4.0206840000e-02
-1.7760000000e+02   1.1043098919e+00 4.0626130000e-02
-1.7755000000e+02   1.1022681779e+00 4.1039460000e-02
-1.7750000000e+02   1.1002059459e+00 4.1446850000e-02
-1.7745000000e+02   1.0981234929e+00 4.1848300000e-02
-1.7740000000e+02   1.0960211159e+00 4.2243800000e-02
-1.7735000000e+02   1.0938991129e+00 4.2633350000e-02
-1.7730000000e+02   1.0917577809e+00 4.3016950000e-02
-1.7725000000e+02   1.0895974179e+00 4.3394610000e-02
-1.7720000000e+02   1.0874183199e+00 4.3766320000e-02
-1.7715000000e+02   1.0852207859e+00 4.4132080000e-02
-1.7710000000e+02   1.0830051119e+00 4.4491900000e-02
-1.7705000000e+02   1.0807715959e+00 4.4845760000e-02
-1.7700000000e+02   1.0785205359e+00 4.5193690000e-02
-1.7695000000e+02   1.0762522269e+00 4.5535670000e-02
-1.7690000000e+02   1.0739669689e+00 4.5871690000e-02
-1.7685000000e+02   1.0716650579e+00 4.6201770000e-02
-1.7680000000e+02   1.0693467919e+00 4.6525900000e-02
-1.7675000000e+02   1.0670124679e+00 4.6844090000e-02
-1.7670000000e+02   1.0646623829e+00 4.7156340000e-02
-1.7665000000e+02   1.0622968339e+00 4.7462630000e-02
-1.7660000000e+02   1.0599161199e+00 4.7762970000e-02
-1.7655000000e+02   1.0575205369e+00 4.8057370000e-02
-1.7650000000e+02   1.0551103829e+00 4.8345830000e-02
-1.7645000000e+02   1.0526859539e+00 4.8628340000e-02
-1.7640000000e+02   1.0502475489e+00 4.8904890000e-02
-1.7635000000e+02   1.0477954649e+00 4.9175500000e-02
-1.7630000000e+02   1.0453299989e+00 4.9440170000e-02
-1.7625000000e+02   1.0428514479e+00 4.9698880000e-02
-1.7620000000e+02   1.0403601109e+00 4.9951650000e-02
-1.7615000000e+02   1.0378562829e+00 5.0198480000e-02
-1.7610000000e+02   1.0353402629e+00 5.0439360000e-02
-1.7605000000e+02   1.0328123469e+00 5.0674290000e-02
-1.7600000000e+02   1.0302728339e+00 5.0903270000e-02
-1.7595000000e+02   1.0277220199e+00 5.1126310000e-02
-1.7590000000e+02   1.0251602029e+00 5.1343400000e-02
-1.7585000000e+02   1.0225876799e+00 5.1554540000e-02
-1.7580000000e+02   1.0200047489e+00 5.1759730000e-02
-1.7575000000e+02   1.0174117069e+00 5.1958980000e-02
-1.7570000000e+02   1.0148088509e+00 5.2152290000e-02
-1.7565000000e+02   1.0121964779e+00 5.2339640000e-02
-1.7560000000e+02   1.0095748869e+00 5.2521040000e-02
-1.7555000000e+02   1.0069443739e+00 5.2696510000e-02
-1.7550000000e+02   1.0043052359e+00 5.2866020000e-02
-1.7545000000e+02   1.0016577719e+00 5.3029590000e-02
-1.7540000000e+02   9.9900227694e-01 5.3187210000e-02
-1.7535000000e+02   9.9633905094e-01 5.3338879000e-02
-1.7530000000e+02   9.9366838904e-01 5.3484611000e-02
-1.7525000000e+02   9.9099058984e-01 5.3624387000e-02
-1.7520000000e+02   9.8830595034e-01 5.3758219000e-02
-1.7515000000e+02   9.8561476794e-01 5.3886105000e-02
-1.7510000000e+02   9.8291733984e-01 5.4008043000e-02
-1.7505000000e+02   9.8021396364e-01 5.4124034000e-02
-1.7500000000e+02   9.7750493644e-01 5.4234079000e-02
-1.7495000000e+02   9.7479055574e-01 5.4338176000e-02
-1.7490000000e+02   9.7207111884e-01 5.4436327000e-02
-1.7485000000e+02   9.6934692304e-01 5.4528531000e-02
-1.7480000000e+02   9.6661826574e-01 5.4614787000e-02
-1.7475000000e+02   9.6388544434e-01 5.4695097000e-02
-1.7470000000e+02   9.6114875604e-01 5.4769460000e-02
-1.7465000000e+02   9.5840849834e-01 5.4837876000e-02
-1.7460000000e+02   9.5566496844e-01 5.4900345000e-02
-1.7455000000e+02   9.5291846384e-01 5.4956867000e-02
-1.7450000000e+02   9.5016928174e-01 5.5007442000e-02
-1.7445000000e+02   9.4741771964e-01 5.5052070000e-02
-1.7440000000e+02   9.4466407474e-01 5.5090752000e-02
-1.7435000000e+02   9.4190864444e-01 5.5123486000e-02
-1.7430000000e+02   9.3915172614e-01 5.5203926000e-02
-1.7425000000e+02   9.3638825184e-01 5.5805680000e-02
-1.7420000000e+02   9.3357115814e-01 5.6977662000e-02
-1.7415000000e+02   9.3069048564e-01 5.8235630000e-02
-1.7410000000e+02   9.2774759514e-01 5.9466378000e-02
-1.7405000000e+02   9.2474384784e-01 6.0669907000e-02
-1.7400000000e+02   9.2168060444e-01 6.1846217000e-02
-1.7395000000e+02   9.1855922614e-01 6.2995306000e-02
-1.7390000000e+02   9.1538107384e-01 6.4117177000e-02
-1.7385000000e+02   9.1214750844e-01 6.5211828000e-02
-1.7380000000e+02   9.0885989104e-01 6.6279258000e-02
-1.7375000000e+02   9.0551958264e-01 6.7319469000e-02
-1.7370000000e+02   9.0212794414e-01 6.8332462000e-02
-1.7365000000e+02   8.9868633644e-01 6.9318235000e-02
-1.7360000000e+02   8.9519612064e-01 7.0276787000e-02
-1.7355000000e+02   8.9165865774e-01 7.1208120000e-02
-1.7350000000e+02   8.8807530864e-01 7.2112234000e-02
-1.7345000000e+02   8.8444743434e-01 7.2989128000e-02
-1.7340000000e+02   8.8077639584e-01 7.3838802000e-02
-1.7335000000e+02   8.7706355414e-01 7.4661257000e-02
-1.7330000000e+02   8.7331027014e-01 7.5456493000e-02
-1.7325000000e+02   8.6951790484e-01 7.6224509000e-02
-1.7320000000e+02   8.6568781924e-01 7.6965305000e-02
-1.7315000000e+02   8.6182137434e-01 7.7678882000e-02
-1.7310000000e+02   8.5791993104e-01 7.8365239000e-02
-1.7305000000e+02   8.5398485044e-01 7.9024376000e-02
-1.7300000000e+02   8.5001749344e-01 7.9656294000e-02
-1.7295000000e+02   8.4601922104e-01 8.0260993000e-02
-1.7290000000e+02   8.4199139414e-01 8.0838471000e-02
-1.7285000000e+02   8.3793537394e-01 8.1388730000e-02
-1.7280000000e+02   8.3385252114e-01 8.1911771000e-02
-1.7275000000e+02   8.2974419684e-01 8.2407591000e-02
-1.7270000000e+02   8.2561176204e-01 8.2876191000e-02
-1.7265000000e+02   8.2145657774e-01 8.3317572000e-02
-1.7260000000e+02   8.1728000484e-01 8.3731733000e-02
-1.7255000000e+02   8.1308340444e-01 8.4118675000e-02
-1.7250000000e+02   8.0886813734e-01 8.4478398000e-02
-1.7245000000e+02   8.0463556464e-01 8.4810900000e-02
-1.7240000000e+02   8.0038704734e-01 8.5116183000e-02
-1.7235000000e+02   7.9612394634e-01 8.5394247000e-02
-1.7230000000e+02   7.9184762264e-01 8.5645091000e-02
-1.7225000000e+02   7.8755943724e-01 8.5868715000e-02
-1.7220000000e+02   7.8326075114e-01 8.6065120000e-02
-1.7215000000e+02   7.7895292524e-01 8.6234306000e-02
-1.7210000000e+02   7.7463732054e-01 8.6376271000e-02
-1.7205000000e+02   7.7031529814e-01 8.6491017000e-02
-1.7200000000e+02   7.6598821884e-01 8.6578544000e-02
-1.7195000000e+02   7.6165744374e-01 8.6638851000e-02
-1.7190000000e+02   7.5732433374e-01 8.6671938000e-02
-1.7185000000e+02   7.5299024994e-01 8.6677806000e-02
-1.7180000000e+02   7.4865655314e-01 8.6656455000e-02
-1.7175000000e+02   7.4432460444e-01 8.6607883000e-02
-1.7170000000e+02   7.3999576484e-01 8.6532092000e-02
-1.7165000000e+02   7.3567139524e-01 8.6429082000e-02
-1.7160000000e+02   7.3135285664e-01 8.6298852000e-02
-1.7155000000e+02   7.2704151004e-01 8.6141402000e-02
-1.7150000000e+02   7.2273871644e-01 8.5956733000e-02
-1.7145000000e+02   7.1844583674e-01 8.5744845000e-02
-1.7140000000e+02   7.1416423194e-01 8.5505736000e-02
-1.7135000000e+02   7.0989526314e-01 8.5239408000e-02
-1.7130000000e+02   7.0564029114e-01 8.4945861000e-02
-1.7125000000e+02   7.0140067704e-01 8.4625094000e-02
-1.7120000000e+02   6.9717778174e-01 8.4277107000e-02
-1.7115000000e+02   6.9297296634e-01 8.3901901000e-02
-1.7110000000e+02   6.8878759164e-01 8.3499476000e-02
-1.7105000000e+02   6.8462301874e-01 8.3069830000e-02
-1.7100000000e+02   6.8048060864e-01 8.2612965000e-02
-1.7095000000e+02   6.7636172224e-01 8.2128881000e-02
-1.7090000000e+02   6.7226772054e-01 8.1617577000e-02
-1.7085000000e+02   6.6819996454e-01 8.1079054000e-02
-1.7080000000e+02   6.6415981514e-01 8.0513311000e-02
-1.7075000000e+02   6.6014863344e-01 7.9920348000e-02
-1.7070000000e+02   6.5616778034e-01 7.9300165000e-02
-1.7065000000e+02   6.5221861694e-01 7.8652763000e-02
-1.7060000000e+02   6.4830250404e-01 7.7978143000e-02
-1.7055000000e+02   6.4442080264e-01 7.7276301000e-02
-1.7050000000e+02   6.4057487394e-01 7.6547240000e-02
-1.7045000000e+02   6.3676607864e-01 7.5790961000e-02
-1.7040000000e+02   6.3299577784e-01 7.5007461000e-02
-1.7035000000e+02   6.2926533254e-01 7.4196742000e-02
-1.7030000000e+02   6.2557610364e-01 7.3358803000e-02
-1.7025000000e+02   6.2192945224e-01 7.2493644000e-02
-1.7020000000e+02   6.1832673924e-01 7.1601267000e-02
-1.7015000000e+02   6.1476932554e-01 7.0681670000e-02
-1.7010000000e+02   6.1125857224e-01 6.9734852000e-02
-1.7005000000e+02   6.0779584034e-01 6.8760815000e-02
-1.7000000000e+02   6.0438249074e-01 6.7759559000e-02
-1.6995000000e+02   6.0101988444e-01 6.6731083000e-02
-1.6990000000e+02   5.9770938244e-01 6.5675388000e-02
-1.6985000000e+02   5.9445234564e-01 6.4592473000e-02
-1.6980000000e+02   5.9125013514e-01 6.3482338000e-02
-1.6975000000e+02   5.8810411184e-01 6.2344984000e-02
-1.6970000000e+02   5.8501563674e-01 6.1180411000e-02
-1.6965000000e+02   5.8198607074e-01 5.9988618000e-02
-1.6960000000e+02   5.7901677494e-01 5.8769605000e-02
-1.6955000000e+02   5.7610911024e-01 5.7523372000e-02
-1.6950000000e+02   5.7326443774e-01 5.6249920000e-02
-1.6945000000e+02   5.7048411824e-01 5.4949249000e-02
-1.6940000000e+02   5.6776951284e-01 5.3621358000e-02
-1.6935000000e+02   5.6512198244e-01 5.2266247000e-02
-1.6930000000e+02   5.6254288814e-01 5.0883917000e-02
-1.6925000000e+02   5.6003359074e-01 4.9474368000e-02
-1.6920000000e+02   5.5759545134e-01 4.8037598000e-02
-1.6915000000e+02   5.5522983094e-01 4.6573609000e-02
-1.6910000000e+02   5.5293809044e-01 4.5082400000e-02
-1.6905000000e+02   5.5072159094e-01 4.3563972000e-02
-1.6900000000e+02   5.4858169324e-01 4.2018325000e-02
-1.6895000000e+02   5.4651975844e-01 4.0445457000e-02
-1.6890000000e+02   5.4453714754e-01 3.8845371000e-02
-1.6885000000e+02   5.4263522134e-01 3.7218065000e-02
-1.6880000000e+02   5.4081534104e-01 3.5563538000e-02
-1.6875000000e+02   5.3907886754e-01 3.3881793000e-02
-1.6870000000e+02   5.3742716174e-01 3.2172828000e-02
-1.6865000000e+02   5.3586158474e-01 3.0436643000e-02
-1.6860000000e+02   5.3438349744e-01 2.8673239000e-02
-1.6855000000e+02   5.3299426084e-01 2.7184447000e-02
-1.6850000000e+02   5.3166505274e-01 2.6565571000e-02
-1.6845000000e+02   5.3033770374e-01 2.6543520000e-02
-1.6840000000e+02   5.2901070074e-01 2.6536625000e-02
-1.6835000000e+02   5.2768404124e-01 2.6529777000e-02
-1.6830000000e+02   5.2635772304e-01 2.6522975000e-02
-1.6825000000e+02   5.2503174374e-01 2.6516221000e-02
-1.6820000000e+02   5.2370610094e-01 2.6509513000e-02
-1.6815000000e+02   5.2238079244e-01 2.6502851000e-02
-1.6810000000e+02   5.2105581584e-01 2.6496236000e-02
-1.6805000000e+02   5.1973116884e-01 2.6489668000e-02
-1.6800000000e+02   5.1840684904e-01 2.6483147000e-02
-1.6795000000e+02   5.1708285414e-01 2.6476672000e-02
-1.6790000000e+02   5.1575918184e-01 2.6470244000e-02
-1.6785000000e+02   5.1443582974e-01 2.6463864000e-02
-1.6780000000e+02   5.1311279544e-01 2.6457530000e-02
-1.6775000000e+02   5.1179007674e-01 2.6451242000e-02
-1.6770000000e+02   5.1046767124e-01 2.6445001000e-02
-1.6765000000e+02   5.0914557664e-01 2.6438807000e-02
-1.6760000000e+02   5.0782379054e-01 2.6432660000e-02
-1.6755000000e+02   5.0650231064e-01 2.6426559000e-02
-1.6750000000e+02   5.0518113464e-01 2.6420505000e-02
-1.6745000000e+02   5.0386026014e-01 2.6414498000e-02
-1.6740000000e+02   5.0253968484e-01 2.6408538000e-02
-1.6735000000e+02   5.0121940634e-01 2.6402625000e-02
-1.6730000000e+02   4.9989942234e-01 2.6396758000e-02
-1.6725000000e+02   4.9857973054e-01 2.6390938000e-02
-1.6720000000e+02   4.9726032854e-01 2.6385164000e-02
-1.6715000000e+02   4.9594121414e-01 2.6379438000e-02
-1.6710000000e+02   4.9462238474e-01 2.6373758000e-02
-1.6705000000e+02   4.9330383834e-01 2.6368124000e-02
-1.6700000000e+02   4.9198557234e-01 2.6362539000e-02
-1.6695000000e+02   4.9066758444e-01 2.6356999000e-02
-1.6690000000e+02   4.8934987244e-01 2.6351506000e-02
-1.6685000000e+02   4.8803243384e-01 2.6346060000e-02
-1.6680000000e+02   4.8671526644e-01 2.6340660000e-02
-1.6675000000e+02   4.8539836784e-01 2.6335308000e-02
-1.6670000000e+02   4.8408173564e-01 2.6330002000e-02
-1.6665000000e+02   4.8276536764e-01 2.6324743000e-02
-1.6660000000e+02   4.8144926134e-01 2.6319531000e-02
-1.6655000000e+02   4.8013341454e-01 2.6314365000e-02
-1.6650000000e+02   4.7881782484e-01 2.6309246000e-02
-1.6645000000e+02   4.7750248994e-01 2.6304173000e-02
-1.6640000000e+02   4.7618740754e-01 2.6299148000e-02
-1.6635000000e+02   4.7487257514e-01 2.6294170000e-02
-1.6630000000e+02   4.7355799054e-01 2.6289238000e-02
-1.6625000000e+02   4.7224365134e-01 2.6284352000e-02
-1.6620000000e+02   4.7092955534e-01 2.6279513000e-02
-1.6615000000e+02   4.6961570004e-01 2.6274723000e-02
-1.6610000000e+02   4.6830208304e-01 2.6269978000e-02
-1.6605000000e+02   4.6698870224e-01 2.6265279000e-02
-1.6600000000e+02   4.6567555514e-01 2.6260627000e-02
-1.6595000000e+02   4.6436263954e-01 2.6256022000e-02
-1.6590000000e+02   4.6304995294e-01 2.6251465000e-02
-1.6585000000e+02   4.6173749304e-01 2.6246954000e-02
-1.6580000000e+02   4.6042525754e-01 2.6242489000e-02
-1.6575000000e+02   4.5911324414e-01 2.6238071000e-02
-1.6570000000e+02   4.5780145044e-01 2.6233700000e-02
-1.6565000000e+02   4.5648987414e-01 2.6229376000e-02
-1.6560000000e+02   4.5517851284e-01 2.6225099000e-02
-1.6555000000e+02   4.5386736424e-01 2.6220868000e-02
-1.6550000000e+02   4.5255642604e-01 2.6216684000e-02
-1.6545000000e+02   4.5124569584e-01 2.6212546000e-02
-1.6540000000e+02   4.4993517144e-01 2.6208455000e-02
-1.6535000000e+02   4.4862485034e-01 2.6204412000e-02
-1.6530000000e+02   4.4731473024e-01 2.6200415000e-02
-1.6525000000e+02   4.4600480884e-01 2.6196465000e-02
-1.6520000000e+02   4.4469508374e-01 2.6192561000e-02
-1.6515000000e+02   4.4338555274e-01 2.6188704000e-02
-1.6510000000e+02   4.4207621334e-01 2.6184894000e-02
-1.6505000000e+02   4.4076706334e-01 2.6181130000e-02
-1.6500000000e+02   4.3945810034e-01 2.6177414000e-02
-1.6495000000e+02   4.3814932194e-01 2.6173745000e-02
-1.6490000000e+02   4.3684072584e-01 2.6170121000e-02
-1.6485000000e+02   4.3553230984e-01 2.6166544000e-02
-1.6480000000e+02   4.3422407144e-01 2.6163015000e-02
-1.6475000000e+02   4.3291600834e-01 2.6159532000e-02
-1.6470000000e+02   4.3160811824e-01 2.6156096000e-02
-1.6465000000e+02   4.3030039874e-01 2.6152707000e-02
-1.6460000000e+02   4.2899284754e-01 2.6149364000e-02
-1.6455000000e+02   4.2768546234e-01 2.6146068000e-02
-1.6450000000e+02   4.2637824074e-01 2.6142819000e-02
-1.6445000000e+02   4.2507118044e-01 2.6139616000e-02
-1.6440000000e+02   4.2376427914e-01 2.6136461000e-02
-1.6435000000e+02   4.2245753434e-01 2.6133352000e-02
-1.6430000000e+02   4.2115094394e-01 2.6130289000e-02
-1.6425000000e+02   4.1984450544e-01 2.6127274000e-02
-1.6420000000e+02   4.1853821654e-01 2.6124306000e-02
-1.6415000000e+02   4.1723207484e-01 2.6121384000e-02
-1.6410000000e+02   4.1592607814e-01 2.6118508000e-02
-1.6405000000e+02   4.1462022404e-01 2.6115679000e-02
-1.6400000000e+02   4.1331451024e-01 2.6112898000e-02
-1.6395000000e+02   4.1200893424e-01 2.6110163000e-02
-1.6390000000e+02   4.1070349394e-01 2.6107474000e-02
-1.6385000000e+02   4.0939818684e-01 2.6104833000e-02
-1.6380000000e+02   4.0809301064e-01 2.6102239000e-02
-1.6375000000e+02   4.0678796294e-01 2.6099691000e-02
-1.6370000000e+02   4.0548304154e-01 2.6097189000e-02
-1.6365000000e+02   4.0417824404e-01 2.6094734000e-02
-1.6360000000e+02   4.0287356814e-01 2.6092327000e-02
-1.6355000000e+02   4.0156901134e-01 2.6089966000e-02
-1.6350000000e+02   4.0026457154e-01 2.6087651000e-02
-1.6345000000e+02   3.9896024624e-01 2.6085384000e-02
-1.6340000000e+02   3.9765603314e-01 2.6083163000e-02
-1.6335000000e+02   3.9635192994e-01 2.6080989000e-02
-1.6330000000e+02   3.9504793424e-01 2.6078862000e-02
-1.6325000000e+02   3.9374404374e-01 2.6076781000e-02
-1.6320000000e+02   3.9244025614e-01 2.6074747000e-02
-1.6315000000e+02   3.9113656904e-01 2.6072760000e-02
-1.6310000000e+02   3.8983298014e-01 2.6070820000e-02
-1.6305000000e+02   3.8852948704e-01 2.6068927000e-02
-1.6300000000e+02   3.8722608744e-01 2.6067079000e-02
-1.6295000000e+02   3.8592277914e-01 2.6065279000e-02
-1.6290000000e+02   3.8461955954e-01 2.6063526000e-02
-1.6285000000e+02   3.8331642654e-01 2.6061841000e-02
-1.6280000000e+02   3.8201337544e-01 2.6060809000e-02
-1.6275000000e+02   3.8071034564e-01 2.6060646000e-02
-1.6270000000e+02   3.7940731084e-01 2.6060743000e-02
-1.6265000000e+02   3.7810427134e-01 2.6060835000e-02
-1.6260000000e+02   3.7680122734e-01 2.6060922000e-02
-1.6255000000e+02   3.7549817914e-01 2.6061005000e-02
-1.6250000000e+02   3.7419512684e-01 2.6061084000e-02
-1.6245000000e+02   3.7289207074e-01 2.6061156000e-02
-1.6240000000e+02   3.7158901124e-01 2.6061224000e-02
-1.6235000000e+02   3.7028594834e-01 2.6061288000e-02
-1.6230000000e+02   3.6898288244e-01 2.6061347000e-02
-1.6225000000e+02   3.6767981364e-01 2.6061401000e-02
-1.6220000000e+02   3.6637674234e-01 2.6061449000e-02
-1.6215000000e+02   3.6507366874e-01 2.6061494000e-02
-1.6210000000e+02   3.6377059294e-01 2.6061534000e-02
-1.6205000000e+02   3.6246751534e-01 2.6061568000e-02
-1.6200000000e+02   3.6116443614e-01 2.6061598000e-02
-1.6195000000e+02   3.5986135554e-01 2.6061624000e-02
-1.6190000000e+02   3.5855827374e-01 2.6061644000e-02
-1.6185000000e+02   3.5725519114e-01 2.6061659000e-02
-1.6180000000e+02   3.5595210784e-01 2.6061671000e-02
-1.6175000000e+02   3.5464902404e-01 2.6061677000e-02
-1.6170000000e+02   3.5334594014e-01 2.6061677000e-02
-1.6165000000e+02   3.5204285634e-01 2.6061674000e-02
-1.6160000000e+02   3.5073977274e-01 2.6061666000e-02
