#Distance(nm)      Energy(kJ/mol)     Force(kJ/mol/nm)
-1.8000000000e+02   2.1687351352e+00 -4.8467332800e+00
-1.7995000000e+02   2.1679898922e+00 1.4951910000e-02
-1.7990000000e+02   2.1672399442e+00 1.5046390000e-02
-1.7985000000e+02   2.1664852532e+00 1.5141600000e-02
-1.7980000000e+02   2.1657257842e+00 1.5237550000e-02
-1.7975000000e+02   2.1649614982e+00 1.5334260000e-02
-1.7970000000e+02   2.1641923582e+00 1.5431700000e-02
-1.7965000000e+02   2.1634183282e+00 1.5529880000e-02
-1.7960000000e+02   2.1626393702e+00 1.5628820000e-02
-1.7955000000e+02   2.1618554462e+00 1.5728490000e-02
-1.7950000000e+02   2.1610665212e+00 1.5828900000e-02
-1.7945000000e+02   2.1602725562e+00 1.5930070000e-02
-1.7940000000e+02   2.1594735142e+00 1.6031980000e-02
-1.7935000000e+02   2.1586693582e+00 1.6134620000e-02
-1.7930000000e+02   2.1578600522e+00 1.6238010000e-02
-1.7925000000e+02   2.1570455572e+00 1.6342150000e-02
-1.7920000000e+02   2.1562258372e+00 1.6447030000e-02
-1.7915000000e+02   2.1554008542e+00 1.6552660000e-02
-1.7910000000e+02   2.1545705712e+00 1.6659020000e-02
-1.7905000000e+02   2.1537349522e+00 1.6766120000e-02
-1.7900000000e+02   2.1528939592e+00 1.6873980000e-02
-1.7895000000e+02   2.1520475542e+00 1.6982580000e-02
-1.7890000000e+02   2.1511957012e+00 1.7091920000e-02
-1.7885000000e+02   2.1503383622e+00 1.7202010000e-02
-1.7880000000e+02   2.1494755002e+00 1.7312830000e-02
-1.7875000000e+02   2.1486070792e+00 1.7424400000e-02
-1.7870000000e+02   2.1477330602e+00 1.7536720000e-02
-1.7865000000e+02   2.1468534072e+00 1.7649770000e-02
-1.7860000000e+02   2.1459680832e+00 1.7763580000e-02
-1.7855000000e+02   2.1450770492e+00 1.7878130000e-02
-1.7850000000e+02   2.1441802702e+00 1.7993410000e-02
-1.7845000000e+02   2.1432777082e+00 1.8109440000e-02
-1.7840000000e+02   2.1423693262e+00 1.8226220000e-02
-1.7835000000e+02   2.1414550862e+00 1.8343740000e-02
-1.7830000000e+02   2.1405349522e+00 1.8462010000e-02
-1.7825000000e+02   2.1396088852e+00 1.8581020000e-02
-1.7820000000e+02   2.1386768502e+00 1.8700760000e-02
-1.7815000000e+02   2.1377388092e+00 1.8821250000e-02
-1.7810000000e+02   2.1367947252e+00 1.8942490000e-02
-1.7805000000e+02   2.1358445602e+00 1.9064480000e-02
-1.7800000000e+02   2.1348882772e+00 1.9187210000e-02
-1.7795000000e+02   2.1339258392e+00 1.9310670000e-02
-1.7790000000e+02   2.1329572102e+00 1.9434880000e-02
-1.7785000000e+02   2.1319823512e+00 1.9559840000e-02
-1.7780000000e+02   2.1310012262e+00 1.9685540000e-02
-1.7775000000e+02   2.1300137972e+00 1.9811980000e-02
-1.7770000000e+02   2.1290200282e+00 1.9939160000e-02
-1.7765000000e+02   2.1280198812e+00 2.0067100000e-02
-1.7760000000e+02   2.1270133182e+00 2.0195770000e-02
-1.7755000000e+02   2.1260003042e+00 2.0325180000e-02
-1.7750000000e+02   2.1249808002e+00 2.0455350000e-02
-1.7745000000e+02   2.1239547692e+00 2.0586260000e-02
-1.7740000000e+02   2.1229221742e+00 2.0717900000e-02
-1.7735000000e+02   2.1218829792e+00 2.0850290000e-02
-1.7730000000e+02   2.1208371452e+00 2.0983430000e-02
-1.7725000000e+02   2.1197846362e+00 2.1117300000e-02
-1.7720000000e+02   2.1187254152e+00 2.1251930000e-02
-1.7715000000e+02   2.1176594432e+00 2.1387300000e-02
-1.7710000000e+02   2.1165866852e+00 2.1523400000e-02
-1.7705000000e+02   2.1155071032e+00 2.1660250000e-02
-1.7700000000e+02   2.1144206602e+00 2.1797850000e-02
-1.7695000000e+02   2.1133273182e+00 2.1936190000e-02
-1.7690000000e+02   2.1122270412e+00 2.2075280000e-02
-1.7685000000e+02   2.1111197902e+00 2.2215110000e-02
-1.7680000000e+02   2.1100055302e+00 2.2355670000e-02
-1.7675000000e+02   2.1088842232e+00 2.2496980000e-02
-1.7670000000e+02   2.1077558322e+00 2.2639040000e-02
-1.7665000000e+02   2.1066203192e+00 2.2781850000e-02
-1.7660000000e+02   2.1054776472e+00 2.2925400000e-02
-1.7655000000e+02   2.1043277792e+00 2.3069680000e-02
-1.7650000000e+02   2.1031706792e+00 2.3214710000e-02
-1.7645000000e+02   2.1020063082e+00 2.3360490000e-02
-1.7640000000e+02   2.1008346302e+00 2.3507010000e-02
-1.7635000000e+02   2.0996556072e+00 2.3654270000e-02
-1.7630000000e+02   2.0984692032e+00 2.3802280000e-02
-1.7625000000e+02   2.0972753792e+00 2.3951030000e-02
-1.7620000000e+02   2.0960741002e+00 2.4100520000e-02
-1.7615000000e+02   2.0948653272e+00 2.4250760000e-02
-1.7610000000e+02   2.0936490242e+00 2.4401740000e-02
-1.7605000000e+02   2.0924251532e+00 2.4553460000e-02
-1.7600000000e+02   2.0911936782e+00 2.4705930000e-02
-1.7595000000e+02   2.0899545602e+00 2.4859150000e-02
-1.7590000000e+02   2.0887077632e+00 2.5013100000e-02
-1.7585000000e+02   2.0874532502e+00 2.5167800000e-02
-1.7580000000e+02   2.0861909832e+00 2.5323240000e-02
-1.7575000000e+02   2.0849209262e+00 2.5479420000e-02
-1.7570000000e+02   2.0836430412e+00 2.5636350000e-02
-1.7565000000e+02   2.0823572912e+00 2.5794030000e-02
-1.7560000000e+02   2.0810636382e+00 2.5952450000e-02
-1.7555000000e+02   2.0797620462e+00 2.6111600000e-02
-1.7550000000e+02   2.0784524782e+00 2.6271510000e-02
-1.7545000000e+02   2.0771348952e+00 2.6432160000e-02
-1.7540000000e+02   2.0758092622e+00 2.6593540000e-02
-1.7535000000e+02   2.0744755412e+00 2.6755680000e-02
-1.7530000000e+02   2.0731336942e+00 2.6918560000e-02
-1.7525000000e+02   2.0717836852e+00 2.7082180000e-02
-1.7520000000e+02   2.0704254762e+00 2.7246550000e-02
-1.7515000000e+02   2.0690590302e+00 2.7411660000e-02
-1.7510000000e+02   2.0676843102e+00 2.7577510000e-02
-1.7505000000e+02   2.0663012792e+00 2.7744100000e-02
-1.7500000000e+02   2.0649099002e+00 2.7911440000e-02
-1.7495000000e+02   2.0635101352e+00 2.8079530000e-02
-1.7490000000e+02   2.0621019472e+00 2.8248350000e-02
-1.7485000000e+02   2.0606853002e+00 2.8417920000e-02
-1.7480000000e+02   2.0592601552e+00 2.8588240000e-02
-1.7475000000e+02   2.0578264762e+00 2.8759290000e-02
-1.7470000000e+02   2.0563842262e+00 2.8931090000e-02
-1.7465000000e+02   2.0549333672e+00 2.9103640000e-02
-1.7460000000e+02   2.0534738622e+00 2.9276930000e-02
-1.7455000000e+02   2.0520056742e+00 2.9450960000e-02
-1.7450000000e+02   2.0505287662e+00 2.9625730000e-02
-1.7445000000e+02   2.0490431012e+00 2.9801250000e-02
-1.7440000000e+02   2.0475486412e+00 2.9977520000e-02
-1.7435000000e+02   2.0460453492e+00 3.0154520000e-02
-1.7430000000e+02   2.0445331892e+00 3.0361570000e-02
-1.7425000000e+02   2.0430091922e+00 3.0856250000e-02
-1.7420000000e+02   2.0414475642e+00 3.1662200000e-02
-1.7415000000e+02   2.0398429722e+00 3.2512780000e-02
-1.7410000000e+02   2.0381962862e+00 3.3345960000e-02
-1.7405000000e+02   2.0365083762e+00 3.4161740000e-02
-1.7400000000e+02   2.0347801122e+00 3.4960120000e-02
-1.7395000000e+02   2.0330123642e+00 3.5741120000e-02
-1.7390000000e+02   2.0312060002e+00 3.6504730000e-02
-1.7385000000e+02   2.0293618912e+00 3.7250940000e-02
-1.7380000000e+02   2.0274809062e+00 3.7979750000e-02
-1.7375000000e+02   2.0255639162e+00 3.8691170000e-02
-1.7370000000e+02   2.0236117892e+00 3.9385200000e-02
-1.7365000000e+02   2.0216253962e+00 4.0061830000e-02
-1.7360000000e+02   2.0196056062e+00 4.0721070000e-02
-1.7355000000e+02   2.0175532892e+00 4.1362920000e-02
-1.7350000000e+02   2.0154693142e+00 4.1987370000e-02
-1.7345000000e+02   2.0133545522e+00 4.2594420000e-02
-1.7340000000e+02   2.0112098722e+00 4.3184080000e-02
-1.7335000000e+02   2.0090361442e+00 4.3756350000e-02
-1.7330000000e+02   2.0068342372e+00 4.4311220000e-02
-1.7325000000e+02   2.0046050222e+00 4.4848700000e-02
-1.7320000000e+02   2.0023493672e+00 4.5368790000e-02
-1.7315000000e+02   2.0000681432e+00 4.5871480000e-02
-1.7310000000e+02   1.9977622192e+00 4.6356780000e-02
-1.7305000000e+02   1.9954324652e+00 4.6824690000e-02
-1.7300000000e+02   1.9930797502e+00 4.7275190000e-02
-1.7295000000e+02   1.9907049462e+00 4.7708300000e-02
-1.7290000000e+02   1.9883089202e+00 4.8124030000e-02
-1.7285000000e+02   1.9858925432e+00 4.8522360000e-02
-1.7280000000e+02   1.9834566842e+00 4.8903300000e-02
-1.7275000000e+02   1.9810022132e+00 4.9266830000e-02
-1.7270000000e+02   1.9785300012e+00 4.9612970000e-02
-1.7265000000e+02   1.9760409162e+00 4.9941730000e-02
-1.7260000000e+02   1.9735358282e+00 5.0253090000e-02
-1.7255000000e+02   1.9710156072e+00 5.0547050000e-02
-1.7250000000e+02   1.9684811232e+00 5.0823610000e-02
-1.7245000000e+02   1.9659332462e+00 5.1082790000e-02
-1.7240000000e+02   1.9633728442e+00 5.1324580000e-02
-1.7235000000e+02   1.9608007882e+00 5.1548960000e-02
-1.7230000000e+02   1.9582179482e+00 5.1755950000e-02
-1.7225000000e+02   1.9556251932e+00 5.1945550000e-02
-1.7220000000e+02   1.9530233932e+00 5.2117760000e-02
-1.7215000000e+02   1.9504134172e+00 5.2272570000e-02
-1.7210000000e+02   1.9477961362e+00 5.2409980000e-02
-1.7205000000e+02   1.9451724192e+00 5.2530010000e-02
-1.7200000000e+02   1.9425431352e+00 5.2632640000e-02
-1.7195000000e+02   1.9399091552e+00 5.2717860000e-02
-1.7190000000e+02   1.9372713492e+00 5.2785710000e-02
-1.7185000000e+02   1.9346305842e+00 5.2836160000e-02
-1.7180000000e+02   1.9319877332e+00 5.2869210000e-02
-1.7175000000e+02   1.9293436632e+00 5.2884870000e-02
-1.7170000000e+02   1.9266992462e+00 5.2883130000e-02
-1.7165000000e+02   1.9240553502e+00 5.2864000000e-02
-1.7160000000e+02   1.9214128462e+00 5.2827470000e-02
-1.7155000000e+02   1.9187726032e+00 5.2773560000e-02
-1.7150000000e+02   1.9161354902e+00 5.2702250000e-02
-1.7145000000e+02   1.9135023782e+00 5.2613540000e-02
-1.7140000000e+02   1.9108741362e+00 5.2507450000e-02
-1.7135000000e+02   1.9082516332e+00 5.2383950000e-02
-1.7130000000e+02   1.9056357412e+00 5.2243060000e-02
-1.7125000000e+02   1.9030273272e+00 5.2084780000e-02
-1.7120000000e+02   1.9004272632e+00 5.1909100000e-02
-1.7115000000e+02   1.8978364172e+00 5.1716030000e-02
-1.7110000000e+02   1.8952556602e+00 5.1505560000e-02
-1.7105000000e+02   1.8926858612e+00 5.1277710000e-02
-1.7100000000e+02   1.8901278892e+00 5.1032460000e-02
-1.7095000000e+02   1.8875826152e+00 5.0769810000e-02
-1.7090000000e+02   1.8850509082e+00 5.0489770000e-02
-1.7085000000e+02   1.8825336382e+00 5.0192330000e-02
-1.7080000000e+02   1.8800316752e+00 4.9877500000e-02
-1.7075000000e+02   1.8775458882e+00 4.9545280000e-02
-1.7070000000e+02   1.8750771472e+00 4.9195670000e-02
-1.7065000000e+02   1.8726263212e+00 4.8828660000e-02
-1.7060000000e+02   1.8701942812e+00 4.8444250000e-02
-1.7055000000e+02   1.8677818962e+00 4.8042450000e-02
-1.7050000000e+02   1.8653900362e+00 4.7623260000e-02
-1.7045000000e+02   1.8630195702e+00 4.7186670000e-02
-1.7040000000e+02   1.8606713692e+00 4.6732690000e-02
-1.7035000000e+02   1.8583463012e+00 4.6261320000e-02
-1.7030000000e+02   1.8560452372e+00 4.5772540000e-02
-1.7025000000e+02   1.8537690472e+00 4.5266380000e-02
-1.7020000000e+02   1.8515185992e+00 4.4742830000e-02
-1.7015000000e+02   1.8492947642e+00 4.4201870000e-02
-1.7010000000e+02   1.8470984122e+00 4.3643520000e-02
-1.7005000000e+02   1.8449304122e+00 4.3067790000e-02
-1.7000000000e+02   1.8427916332e+00 4.2474660000e-02
-1.6995000000e+02   1.8406829462e+00 4.1864130000e-02
-1.6990000000e+02   1.8386052202e+00 4.1236200000e-02
-1.6985000000e+02   1.8365593262e+00 4.0590880000e-02
-1.6980000000e+02   1.8345461322e+00 3.9928180000e-02
-1.6975000000e+02   1.8325665082e+00 3.9248080000e-02
-1.6970000000e+02   1.8306213242e+00 3.8550580000e-02
-1.6965000000e+02   1.8287114502e+00 3.7835690000e-02
-1.6960000000e+02   1.8268377552e+00 3.7103400000e-02
-1.6955000000e+02   1.8250011102e+00 3.6353720000e-02
-1.6950000000e+02   1.8232023832e+00 3.5586650000e-02
-1.6945000000e+02   1.8214424452e+00 3.4802170000e-02
-1.6940000000e+02   1.8197221662e+00 3.4000310000e-02
-1.6935000000e+02   1.8180424142e+00 3.3181060000e-02
-1.6930000000e+02   1.8164040602e+00 3.2344410000e-02
-1.6925000000e+02   1.8148079732e+00 3.1490370000e-02
-1.6920000000e+02   1.8132550232e+00 3.0618930000e-02
-1.6915000000e+02   1.8117460802e+00 2.9730090000e-02
-1.6910000000e+02   1.8102820142e+00 2.8823860000e-02
-1.6905000000e+02   1.8088636942e+00 2.7900250000e-02
-1.6900000000e+02   1.8074919892e+00 2.6959230000e-02
-1.6895000000e+02   1.8061677712e+00 2.6000820000e-02
-1.6890000000e+02   1.8048919072e+00 2.5025020000e-02
-1.6885000000e+02   1.8036652692e+00 2.4031820000e-02
-1.6880000000e+02   1.8024887252e+00 2.3021230000e-02
-1.6875000000e+02   1.8013631462e+00 2.1993250000e-02
-1.6870000000e+02   1.8002894002e+00 2.0947870000e-02
-1.6865000000e+02   1.7992683592e+00 1.9885090000e-02
-1.6860000000e+02   1.7983008912e+00 1.8804930000e-02
-1.6855000000e+02   1.7973878662e+00 1.7875330000e-02
-1.6850000000e+02   1.7965133582e+00 1.7428390000e-02
-1.6845000000e+02   1.7956450272e+00 1.7313660000e-02
-1.6840000000e+02   1.7947819922e+00 1.7208110000e-02
-1.6835000000e+02   1.7939242162e+00 1.7103350000e-02
-1.6830000000e+02   1.7930716572e+00 1.6999390000e-02
-1.6825000000e+02   1.7922242772e+00 1.6896210000e-02
-1.6820000000e+02   1.7913820362e+00 1.6793820000e-02
-1.6815000000e+02   1.7905448952e+00 1.6692220000e-02
-1.6810000000e+02   1.7897128142e+00 1.6591410000e-02
-1.6805000000e+02   1.7888857542e+00 1.6491400000e-02
-1.6800000000e+02   1.7880636742e+00 1.6392180000e-02
-1.6795000000e+02   1.7872465362e+00 1.6293730000e-02
-1.6790000000e+02   1.7864343012e+00 1.6196090000e-02
-1.6785000000e+02   1.7856269272e+00 1.6099240000e-02
-1.6780000000e+02   1.7848243772e+00 1.6003170000e-02
-1.6775000000e+02   1.7840266102e+00 1.5907890000e-02
-1.6770000000e+02   1.7832335882e+00 1.5813410000e-02
-1.6765000000e+02   1.7824452692e+00 1.5719720000e-02
-1.6760000000e+02   1.7816616162e+00 1.5626810000e-02
-1.6755000000e+02   1.7808825882e+00 1.5534690000e-02
-1.6750000000e+02   1.7801081472e+00 1.5443370000e-02
-1.6745000000e+02   1.7793382512e+00 1.5352840000e-02
-1.6740000000e+02   1.7785728632e+00 1.5263090000e-02
-1.6735000000e+02   1.7778119422e+00 1.5174140000e-02
-1.6730000000e+02   1.7770554492e+00 1.5085980000e-02
-1.6725000000e+02   1.7763033442e+00 1.4998600000e-02
-1.6720000000e+02   1.7755555892e+00 1.4912020000e-02
-1.6715000000e+02   1.7748121422e+00 1.4826230000e-02
-1.6710000000e+02   1.7740729662e+00 1.4741220000e-02
-1.6705000000e+02   1.7733380202e+00 1.4657010000e-02
-1.6700000000e+02   1.7726072652e+00 1.4573590000e-02
-1.6695000000e+02   1.7718806612e+00 1.4490960000e-02
-1.6690000000e+02   1.7711581692e+00 1.4409120000e-02
-1.6685000000e+02   1.7704397492e+00 1.4328070000e-02
-1.6680000000e+02   1.7697253622e+00 1.4247800000e-02
-1.6675000000e+02   1.7690149692e+00 1.4168330000e-02
-1.6670000000e+02   1.7683085292e+00 1.4089650000e-02
-1.6665000000e+02   1.7676060042e+00 1.4011760000e-02
-1.6660000000e+02   1.7669073532e+00 1.3934670000e-02
-1.6655000000e+02   1.7662125372e+00 1.3858350000e-02
-1.6650000000e+02   1.7655215182e+00 1.3782830000e-02
-1.6645000000e+02   1.7648342542e+00 1.3708100000e-02
-1.6640000000e+02   1.7641507082e+00 1.3634160000e-02
-1.6635000000e+02   1.7634708382e+00 1.3561020000e-02
-1.6630000000e+02   1.7627946062e+00 1.3488650000e-02
-1.6625000000e+02   1.7621219732e+00 1.3417080000e-02
-1.6620000000e+02   1.7614528982e+00 1.3346310000e-02
-1.6615000000e+02   1.7607873422e+00 1.3276320000e-02
-1.6610000000e+02   1.7601252662e+00 1.3207110000e-02
-1.6605000000e+02   1.7594666312e+00 1.3138710000e-02
-1.6600000000e+02   1.7588113952e+00 1.3071100000e-02
-1.6595000000e+02   1.7581595212e+00 1.3004260000e-02
-1.6590000000e+02   1.7575109692e+00 1.2938220000e-02
-1.6585000000e+02   1.7568656992e+00 1.2872980000e-02
-1.6580000000e+02   1.7562236712e+00 1.2808530000e-02
-1.6575000000e+02   1.7555848462e+00 1.2744860000e-02
-1.6570000000e+02   1.7549491852e+00 1.2681980000e-02
-1.6565000000e+02   1.7543166482e+00 1.2619890000e-02
-1.6560000000e+02   1.7536871962e+00 1.2558590000e-02
-1.6555000000e+02   1.7530607892e+00 1.2498090000e-02
-1.6550000000e+02   1.7524373872e+00 1.2438380000e-02
-1.6545000000e+02   1.7518169512e+00 1.2379450000e-02
-1.6540000000e+02   1.7511994422e+00 1.2321310000e-02
-1.6535000000e+02   1.7505848202e+00 1.2263970000e-02
-1.6530000000e+02   1.7499730452e+00 1.2207420000e-02
-1.6525000000e+02   1.7493640782e+00 1.2151650000e-02
-1.6520000000e+02   1.7487578802e+00 1.2096670000e-02
-1.6515000000e+02   1.7481544112e+00 1.2042490000e-02
-1.6510000000e+02   1.7475536312e+00 1.1989100000e-02
-1.6505000000e+02   1.7469555012e+00 1.1936490000e-02
-1.6500000000e+02   1.7463599822e+00 1.1884680000e-02
-1.6495000000e+02   1.7457670332e+00 1.1833660000e-02
-1.6490000000e+02   1.7451766162e+00 1.1783420000e-02
-1.6485000000e+02   1.7445886912e+00 1.1733980000e-02
-1.6480000000e+02   1.7440032182e+00 1.1685330000e-02
-1.6475000000e+02   1.7434201582e+00 1.1637460000e-02
-1.6470000000e+02   1.7428394722e+00 1.1590390000e-02
-1.6465000000e+02   1.7422611192e+00 1.1544110000e-02
-1.6460000000e+02   1.7416850612e+00 1.1498610000e-02
-1.6455000000e+02   1.7411112582e+00 1.1453920000e-02
-1.6450000000e+02   1.7405396692e+00 1.1410010000e-02
-1.6445000000e+02   1.7399702572e+00 1.1366880000e-02
-1.6440000000e+02   1.7394029812e+00 1.1324550000e-02
-1.6435000000e+02   1.7388378022e+00 1.1283010000e-02
-1.6430000000e+02   1.7382746802e+00 1.1242260000e-02
-1.6425000000e+02   1.7377135762e+00 1.1202300000e-02
-1.6420000000e+02   1.7371544502e+00 1.1163130000e-02
-1.6415000000e+02   1.7365972632e+00 1.1124750000e-02
-1.6410000000e+02   1.7360419752e+00 1.1087160000e-02
-1.6405000000e+02   1.7354885472e+00 1.1050360000e-02
-1.6400000000e+02   1.7349369392e+00 1.1014350000e-02
-1.6395000000e+02   1.7343871122e+00 1.0979130000e-02
-1.6390000000e+02   1.7338390262e+00 1.0944700000e-02
-1.6385000000e+02   1.7332926422e+00 1.0911060000e-02
-1.6380000000e+02   1.7327479202e+00 1.0878210000e-02
-1.6375000000e+02   1.7322048212e+00 1.0846160000e-02
-1.6370000000e+02   1.7316633042e+00 1.0814890000e-02
-1.6365000000e+02   1.7311233322e+00 1.0784410000e-02
-1.6360000000e+02   1.7305848632e+00 1.0754720000e-02
-1.6355000000e+02   1.7300478602e+00 1.0725820000e-02
-1.6350000000e+02   1.7295122812e+00 1.0697720000e-02
-1.6345000000e+02   1.7289780882e+00 1.0670400000e-02
-1.6340000000e+02   1.7284452412e+00 1.0643870000e-02
-1.6335000000e+02   1.7279137012e+00 1.0618140000e-02
-1.6330000000e+02   1.7273834272e+00 1.0593190000e-02
-1.6325000000e+02   1.7268543822e+00 1.0569030000e-02
-1.6320000000e+02   1.7263265242e+00 1.0545670000e-02
-1.6315000000e+02   1.7257998152e+00 1.0523090000e-02
-1.6310000000e+02   1.7252742152e+00 1.0501310000e-02
-1.6305000000e+02   1.7247496842e+00 1.0480310000e-02
-1.6300000000e+02   1.7242261842e+00 1.0460100000e-02
-1.6295000000e+02   1.7237036742e+00 1.0440690000e-02
-1.6290000000e+02   1.7231821152e+00 1.0422070000e-02
-1.6285000000e+02   1.7226614672e+00 1.0403250000e-02
-1.6280000000e+02   1.7221417902e+00 1.0358320000e-02
-1.6275000000e+02   1.7216256352e+00 1.0277200000e-02
-1.6270000000e+02   1.7211140702e+00 1.0186420000e-02
-1.6265000000e+02   1.7206069932e+00 1.0097670000e-02
-1.6260000000e+02   1.7201043032e+00 1.0010950000e-02
-1.6255000000e+02   1.7196058982e+00 9.9262400000e-03
-1.6250000000e+02   1.7191116792e+00 9.8435500000e-03
-1.6245000000e+02   1.7186215432e+00 9.7628800000e-03
-1.6240000000e+02   1.7181353912e+00 9.6842300000e-03
-1.6235000000e+02   1.7176531202e+00 9.6076000000e-03
-1.6230000000e+02   1.7171746312e+00 9.5329900000e-03
-1.6225000000e+02   1.7166998212e+00 9.4604100000e-03
-1.6220000000e+02   1.7162285902e+00 9.3898400000e-03
-1.6215000000e+02   1.7157608372e+00 9.3213000000e-03
-1.6210000000e+02   1.7152964602e+00 9.2547700000e-03
-1.6205000000e+02   1.7148353602e+00 9.1902600000e-03
-1.6200000000e+02   1.7143774342e+00 9.1277800000e-03
-1.6195000000e+02   1.7139225822e+00 9.0673100000e-03
-1.6190000000e+02   1.7134707032e+00 9.0088700000e-03
-1.6185000000e+02   1.7130216952e+00 8.9524400000e-03
-1.6180000000e+02   1.7125754592e+00 8.8980300000e-03
-1.6175000000e+02   1.7121318922e+00 8.8456600000e-03
-1.6170000000e+02   1.7116908932e+00 8.7952900000e-03
-1.6165000000e+02   1.7112523632e+00 8.7469400000e-03
-1.6160000000e+02   1.7108161992e+00 8.7006300000e-03
